Time(s),TotalHemorrhageRate(mL/s),TotalHemorrhagedVolume(mL),HeartRate(1/min),MeanArterialPressure(mmHg),BloodVolume(mL),HemoglobinContent(g),OxygenSaturation,Patient-Weight(kg),ECG-Lead3ElectricPotential(mV),HeartStrokeVolume(mL),HeartEjectionFraction,ExtravascularFluidVolume(L),ArterialPressure(mmHg),SystolicArterialPressure(mmHg),DiastolicArterialPressure(mmHg),CardiacOutput(L/min),CentralVenousPressure(mmHg),PulmonaryCapillariesWedgePressure(mmHg),TidalVolume(mL),TotalLungVolume(mL),RespirationRate(1/min),CarbonDioxideSaturation,EndTidalCarbonDioxideFraction,EndTidalCarbonDioxidePressure(mmHg),TotalAlveolarVentilation(L/min),TranspulmonaryPressure(cmH2O),CoreTemperature(degC),SkinTemperature(degC),RespiratoryExchangeRatio,OxygenConsumptionRate(mL/min),CarbonDioxideProductionRate(mL/min),GlomerularFiltrationRate(mL/min),RenalBloodFlow(L/min),UrineProductionRate(mL/min),LeftAfferentArterioleResistance(mmHg_min/mL),RightAfferentArterioleResistance(mmHg_min/mL),SystemicVascularResistance(mmHg_s/mL),LeftAlveoli-Pressure(cmH2O),RightAlveoli-Pressure(cmH2O),Pericardium-Volume(mL),Pericardium-Pressure(mmHg),Carina-Oxygen-PartialPressure(mmHg),Carina-CarbonDioxide-PartialPressure(mmHg),LeftLungPulmonary-Oxygen-PartialPressure(mmHg),RightLungPulmonary-Oxygen-PartialPressure(mmHg),LeftLungPulmonary-CarbonDioxide-PartialPressure(mmHg),RightLungPulmonary-CarbonDioxide-PartialPressure(mmHg),LeftAlveoli-Oxygen-PartialPressure(mmHg),LeftAlveoli-CarbonDioxide-PartialPressure(mmHg),RightAlveoli-Oxygen-PartialPressure(mmHg),RightAlveoli-CarbonDioxide-PartialPressure(mmHg),Aorta-Oxygen-PartialPressure(mmHg),Aorta-CarbonDioxide-PartialPressure(mmHg),VenaCava-Oxygen-PartialPressure(mmHg),VenaCava-CarbonDioxide-PartialPressure(mmHg),RightTubules-Sodium-Concentration(g/L),LeftTubules-Sodium-Concentration(g/L),Oxygen-AlveolarTransfer(mL/s),CarbonDioxide-AlveolarTransfer(mL/s),Epinephrine-BloodConcentration(ug/L),Epinephrine-SystemicMassCleared(ug),Norepinephrine-BloodConcentration(ug/L),Norepinephrine-SystemicMassCleared(ug)
0.00,0,0,72.000,95.323,5488.939,821.464,0.9741,77.1,-0.010,80.4,0.566,34.1,106.6,114,73.6,5.79,4.80,6.46,535.260,2355.33,12.00,0.029,0.0476,36.1797,6.42,6.15,37.0,32.9,0.820,252,207,123,1.17,1.345,0.0423,0.0423,0.940,1033,1033,15,1,151,7.1,112.0,109.3,38.8,39.7,111,39.7,108,40.6,89.0,39.4,38.2,44.3,4.03,4.03,5.00,-3.63,0.032221,0.76050182,0.198656,2.67364139
1.00,0,0,72.002,95.325,5488.978,821.464,0.9741,77.0,0.161,80.4,0.566,34.1,93.2,114,73.6,5.79,4.72,6.46,535.260,2742.08,12.00,0.029,0.0476,36.1797,6.42,7.73,37.0,32.9,0.820,252,206,98,1.02,0.874,0.0423,0.0423,0.940,1033,1033,15,1,160,0.3,117.6,114.8,34.5,35.6,115,36.3,112,37.5,89.0,39.5,38.2,44.3,4.03,4.03,4.33,-3.83,0.032222,0.76334229,0.198683,2.68322370
2.00,0,0,72.004,95.331,5489.018,821.464,0.9740,77.0,-0.006,80.4,0.566,34.1,81.9,114,73.6,5.79,4.64,6.46,535.260,2643.54,12.00,0.029,0.0476,36.1797,6.42,6.35,37.0,32.9,0.819,251,205,78,0.88,0.477,0.0423,0.0423,0.940,1034,1034,15,1,139,16.8,115.8,113.0,36.1,37.1,115,36.9,112,38.0,88.9,39.5,38.2,44.3,4.03,4.03,3.67,-2.66,0.032224,0.76618227,0.198720,2.69280623
3.00,0,0,72.008,95.332,5489.060,821.464,0.9740,77.0,0.041,80.4,0.566,34.1,76.1,114,73.6,5.79,4.65,6.46,535.260,2247.81,12.00,0.029,0.0476,36.1797,6.42,4.87,37.0,32.9,0.817,248,203,67,0.83,0.246,0.0423,0.0423,0.940,1033,1033,15,1,115,36.2,113.6,110.7,37.8,38.9,113,37.9,111,39.0,89.0,39.5,38.2,44.3,4.03,4.03,3.20,-2.17,0.032227,0.76902121,0.198764,2.70238952
4.00,0,0,72.009,95.318,5489.100,821.464,0.9741,77.1,0.214,80.3,0.566,34.1,111.0,114,73.6,5.79,4.72,6.46,535.260,2242.89,12.00,0.029,0.0476,36.1797,6.42,4.92,37.0,32.9,0.818,250,204,130,1.25,1.438,0.0423,0.0423,0.940,1033,1033,15,1,115,36.2,112.2,109.4,38.8,39.8,112,39.0,109,40.0,89.0,39.4,38.2,44.3,4.03,4.03,4.38,-2.96,0.032228,0.77185945,0.198796,2.71197419
5.00,0,0,72.011,95.320,5489.138,821.464,0.9741,77.1,-0.024,80.4,0.566,34.1,110.4,114,73.6,5.79,4.78,6.46,534.866,2355.32,12.00,0.029,0.0476,36.2013,6.42,6.15,37.0,32.9,0.820,252,207,130,1.22,1.470,0.0423,0.0423,0.940,1033,1033,15,1,151,7.1,112.0,109.3,38.8,39.8,111,39.7,108,40.6,89.0,39.4,38.2,44.3,4.03,4.03,5.10,-3.74,0.032227,0.77469907,0.198814,2.72156180
6.00,0,0,72.012,95.322,5489.177,821.464,0.9741,77.1,0.098,80.4,0.566,34.1,96.3,114,73.6,5.79,4.75,6.46,534.866,2741.94,12.00,0.029,0.0476,36.2013,6.42,7.73,37.0,32.9,0.820,252,207,104,1.05,0.984,0.0423,0.0423,0.940,1033,1033,15,1,160,0.3,117.6,114.8,34.5,35.6,115,36.3,112,37.5,89.0,39.5,38.2,44.3,4.03,4.03,4.52,-3.97,0.032228,0.77753983,0.198838,2.73115146
7.00,0,0,72.013,95.328,5489.217,821.464,0.9740,77.0,0.098,80.4,0.566,34.1,84.5,114,73.6,5.79,4.65,6.46,534.866,2643.24,12.00,0.029,0.0476,36.2013,6.42,6.35,37.0,32.9,0.819,251,206,83,0.91,0.568,0.0423,0.0423,0.939,1034,1034,15,1,139,16.9,115.8,113.0,36.1,37.2,115,36.9,112,38.1,89.0,39.6,38.2,44.3,4.04,4.04,3.80,-2.76,0.032230,0.78038030,0.198873,2.74074125
8.00,0,0,72.016,95.331,5489.258,821.464,0.9740,77.0,0.017,80.4,0.566,34.1,74.6,114,73.6,5.79,4.63,6.46,534.866,2247.79,12.00,0.029,0.0476,36.2013,6.42,4.87,37.0,32.9,0.818,250,205,65,0.80,0.224,0.0423,0.0423,0.939,1033,1033,15,1,115,36.2,113.6,110.7,37.9,38.9,113,38.0,111,39.0,89.0,39.6,38.2,44.3,4.04,4.04,3.29,-2.21,0.032233,0.78321991,0.198916,2.75033185
9.00,0,0,72.017,95.319,5489.298,821.464,0.9741,77.1,-0.090,80.3,0.566,34.1,105.9,114,73.6,5.79,4.70,6.46,534.866,2242.89,12.00,0.029,0.0476,36.2013,6.42,4.92,37.0,32.9,0.817,249,203,120,1.19,1.243,0.0423,0.0423,0.940,1033,1033,15,1,115,36.3,112.2,109.4,38.9,39.8,112,39.0,109,40.0,89.0,39.5,38.2,44.3,4.04,4.04,4.00,-2.70,0.032234,0.78605845,0.198955,2.75992343
10.00,0,0,72.018,95.320,5489.337,821.464,0.9741,77.1,-0.029,80.4,0.566,34.1,113.6,114,73.6,5.79,4.77,6.46,534.667,2355.32,12.00,0.029,0.0477,36.2227,6.42,6.15,37.0,32.9,0.819,252,206,135,1.26,1.563,0.0423,0.0423,0.939,1033,1033,15,1,151,7.1,112.0,109.3,38.8,39.8,111,39.7,108,40.7,89.1,39.5,38.2,44.3,4.04,4.04,5.07,-3.75,0.032234,0.78889800,0.198974,2.76951778
11.00,0,0,72.019,95.322,5489.375,821.464,0.9740,77.1,0.043,80.4,0.566,34.1,99.6,114,73.6,5.79,4.78,6.46,534.667,2741.96,12.00,0.029,0.0477,36.2227,6.42,7.73,37.0,32.9,0.820,252,207,110,1.09,1.099,0.0423,0.0423,0.939,1033,1033,15,1,160,0.3,117.7,114.9,34.5,35.6,115,36.4,112,37.5,89.0,39.5,38.2,44.3,4.04,4.04,4.72,-4.12,0.032235,0.79173898,0.198996,2.77911465
12.00,0,0,72.020,95.328,5489.415,821.464,0.9740,77.0,0.205,80.4,0.566,34.1,87.3,114,73.6,5.79,4.67,6.46,534.667,2643.24,12.00,0.029,0.0477,36.2227,6.42,6.35,37.0,32.9,0.819,251,206,88,0.95,0.665,0.0423,0.0423,0.939,1034,1034,15,1,139,16.9,115.8,113.1,36.1,37.2,115,36.9,112,38.1,89.0,39.6,38.2,44.3,4.04,4.04,3.94,-2.86,0.032237,0.79457994,0.199029,2.78871183
13.00,0,0,72.022,95.331,5489.456,821.464,0.9740,77.0,-0.032,80.4,0.566,34.1,76.9,114,73.6,5.79,4.62,6.46,534.667,2247.79,12.00,0.029,0.0477,36.2227,6.42,4.87,37.0,32.9,0.818,250,205,69,0.83,0.303,0.0423,0.0423,0.939,1033,1033,15,1,115,36.2,113.6,110.7,37.9,38.9,113,38.0,111,39.1,89.0,39.6,38.2,44.3,4.04,4.04,3.40,-2.29,0.032240,0.79742021,0.199070,2.79830975
14.00,0,0,72.022,95.320,5489.497,821.464,0.9741,77.0,-0.073,80.3,0.566,34.1,97.5,114,73.6,5.79,4.68,6.46,534.667,2242.89,12.00,0.029,0.0477,36.2227,6.42,4.92,37.0,32.9,0.816,247,202,105,1.10,0.939,0.0423,0.0423,0.940,1033,1033,15,1,115,36.3,112.3,109.5,38.9,39.9,112,39.1,109,40.1,89.0,39.5,38.2,44.3,4.04,4.04,3.60,-2.40,0.032242,0.80025926,0.199114,2.80790843
15.00,0,0,72.023,95.321,5489.536,821.464,0.9741,77.1,-0.041,80.4,0.566,34.1,114.3,114,73.6,5.79,4.75,6.46,534.684,2355.33,12.00,0.029,0.0477,36.2435,6.42,6.15,37.0,32.9,0.819,251,206,136,1.27,1.576,0.0423,0.0423,0.939,1033,1033,15,1,151,7.1,112.1,109.3,38.9,39.8,111,39.7,108,40.7,89.1,39.5,38.2,44.3,4.04,4.04,4.94,-3.69,0.032242,0.80309879,0.199135,2.81750952
16.00,0,0,72.023,95.322,5489.574,821.464,0.9740,77.1,0.021,80.4,0.566,34.1,103.0,114,73.6,5.79,4.81,6.46,534.684,2742.01,12.00,0.029,0.0477,36.2435,6.42,7.73,37.0,32.9,0.820,252,207,116,1.13,1.219,0.0423,0.0423,0.939,1033,1033,15,1,160,0.3,117.7,114.9,34.5,35.6,115,36.4,112,37.6,89.0,39.6,38.2,44.3,4.04,4.04,4.93,-4.29,0.032242,0.80593986,0.199156,2.82711339
17.00,0,0,72.024,95.328,5489.613,821.464,0.9740,77.0,0.205,80.4,0.566,34.1,90.1,114,73.6,5.79,4.69,6.46,534.684,2643.24,12.00,0.029,0.0477,36.2435,6.42,6.35,37.0,32.9,0.819,252,206,93,0.98,0.765,0.0423,0.0423,0.939,1034,1034,15,1,139,16.9,115.8,113.1,36.2,37.2,115,37.0,112,38.1,89.0,39.6,38.2,44.3,4.04,4.04,4.09,-2.97,0.032245,0.80878132,0.199186,2.83671813
18.00,0,0,72.025,95.331,5489.654,821.464,0.9740,77.0,-0.039,80.4,0.566,34.1,79.4,114,73.6,5.79,4.63,6.46,534.684,2247.79,12.00,0.029,0.0477,36.2435,6.42,4.87,37.0,32.9,0.819,251,205,74,0.85,0.387,0.0423,0.0423,0.939,1033,1033,15,1,115,36.2,113.6,110.7,37.9,39.0,113,38.0,111,39.1,89.0,39.6,38.2,44.3,4.04,4.04,3.52,-2.38,0.032248,0.81162221,0.199226,2.84632337
19.00,0,0,72.025,95.322,5489.696,821.464,0.9740,77.0,-0.048,80.3,0.566,34.1,86.5,114,73.6,5.79,4.67,6.46,534.684,2242.89,12.00,0.029,0.0477,36.2435,6.42,4.92,37.0,32.9,0.816,247,202,85,0.97,0.560,0.0423,0.0423,0.939,1033,1033,15,1,115,36.3,112.2,109.5,38.9,39.9,112,39.1,109,40.1,89.1,39.5,38.2,44.3,4.05,4.05,3.30,-2.14,0.032250,0.81446192,0.199272,2.85592931
20.00,0,0,72.025,95.321,5489.734,821.464,0.9741,77.1,0.017,80.4,0.566,34.1,113.5,114,73.6,5.79,4.73,6.46,534.727,2355.35,12.00,0.029,0.0477,36.2626,6.42,6.15,37.0,32.9,0.818,250,205,135,1.27,1.538,0.0423,0.0423,0.939,1033,1033,15,1,151,7.1,112.1,109.4,38.9,39.8,111,39.7,108,40.7,89.1,39.5,38.2,44.3,4.05,4.05,4.72,-3.57,0.032250,0.81730149,0.199298,2.86553718
21.00,0,0,72.026,95.326,5489.773,821.464,0.9740,77.1,-0.010,80.4,0.566,34.1,106.6,114,73.6,5.79,4.80,6.46,534.727,2742.07,12.00,0.029,0.0477,36.2626,6.42,7.73,37.0,32.9,0.820,252,207,123,1.17,1.342,0.0423,0.0423,0.939,1033,1033,15,1,160,0.3,117.7,114.9,34.5,35.7,115,36.4,112,37.6,89.0,39.6,38.2,44.3,4.05,4.05,5.13,-4.46,0.032251,0.82014260,0.199317,2.87514798
22.00,0,0,72.026,95.330,5489.812,821.464,0.9740,77.0,0.161,80.4,0.566,34.1,93.2,114,73.6,5.79,4.72,6.46,534.727,2643.24,12.00,0.029,0.0477,36.2626,6.42,6.35,37.0,32.9,0.820,252,206,99,1.02,0.870,0.0423,0.0423,0.939,1034,1034,15,1,139,16.9,115.8,113.1,36.2,37.2,115,37.0,112,38.1,89.0,39.6,38.2,44.3,4.05,4.05,4.25,-3.08,0.032253,0.82298449,0.199345,2.88476028
23.00,0,0,72.026,95.331,5489.852,821.464,0.9740,77.0,-0.006,80.4,0.566,34.1,81.9,114,73.6,5.79,4.64,6.46,534.727,2247.78,12.00,0.029,0.0477,36.2626,6.42,4.87,37.0,32.9,0.819,251,205,78,0.88,0.474,0.0423,0.0423,0.939,1033,1033,15,1,115,36.3,113.6,110.7,37.9,39.0,113,38.0,111,39.1,89.0,39.6,38.2,44.3,4.05,4.05,3.65,-2.46,0.032256,0.82582596,0.199383,2.89437286
24.00,0,0,72.026,95.322,5489.894,821.464,0.9740,77.0,0.041,80.4,0.566,34.1,76.1,114,73.6,5.79,4.65,6.46,534.727,2242.89,12.00,0.029,0.0477,36.2626,6.42,4.92,37.0,32.9,0.817,248,203,67,0.83,0.244,0.0423,0.0423,0.939,1033,1033,15,1,115,36.3,112.2,109.5,38.9,39.9,112,39.1,109,40.1,89.1,39.6,38.2,44.3,4.05,4.05,3.19,-2.02,0.032258,0.82866638,0.199428,2.90398618
25.00,0,0,72.026,95.321,5489.933,821.464,0.9741,77.1,0.214,80.4,0.566,34.1,111.0,114,73.6,5.79,4.72,6.46,534.776,2355.36,12.00,0.029,0.0477,36.2807,6.42,6.15,37.0,32.9,0.818,250,204,130,1.25,1.434,0.0423,0.0423,0.939,1033,1033,15,1,151,7.1,112.1,109.4,38.9,39.8,111,39.7,108,40.7,89.1,39.6,38.2,44.3,4.05,4.05,4.41,-3.37,0.032258,0.83150610,0.199461,2.91360092
26.00,0,0,72.026,95.326,5489.971,821.464,0.9740,77.1,-0.024,80.4,0.566,34.1,110.4,114,73.6,5.79,4.79,6.46,534.776,2742.13,12.00,0.029,0.0477,36.2807,6.42,7.73,37.0,32.9,0.820,252,207,130,1.22,1.467,0.0423,0.0423,0.939,1033,1033,15,1,160,0.3,117.7,114.9,34.5,35.7,115,36.4,112,37.6,89.0,39.6,38.2,44.3,4.05,4.05,5.25,-4.60,0.032259,0.83434718,0.199480,2.92321862
27.00,0,0,72.026,95.329,5490.010,821.464,0.9739,77.1,0.098,80.4,0.566,34.1,96.3,114,73.6,5.79,4.75,6.46,534.776,2643.24,12.00,0.029,0.0477,36.2807,6.42,6.35,37.0,32.9,0.820,252,207,104,1.05,0.981,0.0423,0.0423,0.939,1034,1034,15,1,139,16.9,115.9,113.1,36.2,37.3,115,37.0,112,38.2,89.0,39.7,38.2,44.3,4.05,4.05,4.43,-3.21,0.032261,0.83718941,0.199506,2.93283839
28.00,0,0,72.026,95.331,5490.051,821.464,0.9740,77.0,0.098,80.4,0.566,34.1,84.5,114,73.6,5.79,4.65,6.46,534.776,2247.77,12.00,0.029,0.0477,36.2807,6.42,4.87,37.0,32.9,0.819,251,206,83,0.91,0.566,0.0423,0.0423,0.939,1033,1033,15,1,115,36.3,113.6,110.7,38.0,39.0,113,38.1,111,39.2,89.0,39.6,38.2,44.3,4.06,4.06,3.78,-2.56,0.032264,0.84003138,0.199541,2.94245832
29.00,0,0,72.025,95.323,5490.092,821.464,0.9740,77.0,0.017,80.4,0.566,34.1,74.6,114,73.6,5.79,4.63,6.46,534.776,2242.89,12.00,0.029,0.0477,36.2807,6.42,4.92,37.0,32.9,0.818,250,205,65,0.80,0.222,0.0423,0.0423,0.939,1033,1033,15,1,115,36.3,112.2,109.4,39.0,40.0,112,39.1,109,40.2,89.1,39.6,38.2,44.3,4.06,4.06,3.28,-2.07,0.032266,0.84287251,0.199585,2.95207905
30.00,0,0,72.025,95.322,5490.132,821.464,0.9741,77.1,-0.090,80.4,0.566,34.1,105.9,114,73.6,5.79,4.70,6.46,534.832,2355.38,12.00,0.029,0.0478,36.2986,6.42,6.15,37.0,32.9,0.817,249,203,120,1.19,1.239,0.0423,0.0423,0.939,1033,1033,15,1,151,7.1,112.1,109.4,38.9,39.9,111,39.8,108,40.7,89.1,39.6,38.2,44.3,4.06,4.06,4.03,-3.12,0.032267,0.84571255,0.199625,2.96170078
31.00,4.167,4.083,72.024,95.326,5486.004,820.840,0.9740,77.1,-0.029,80.4,0.566,34.1,113.6,114,73.6,5.79,4.76,6.46,534.832,2742.20,12.00,0.029,0.0478,36.2986,6.42,7.73,37.0,32.9,0.819,252,206,135,1.26,1.558,0.0423,0.0423,0.939,1033,1033,15,1,160,0.3,117.7,114.9,34.5,35.7,115,36.4,112,37.6,89.1,39.6,38.2,44.3,4.06,4.06,5.22,-4.61,0.032267,0.84855357,0.199665,2.97132533
32.00,4.167,8.250,72.024,95.325,5481.876,820.216,0.9739,77.1,0.043,80.4,0.566,34.1,99.6,114,73.6,5.79,4.76,6.46,534.832,2643.23,12.00,0.029,0.0478,36.2986,6.42,6.35,37.0,32.9,0.820,252,207,110,1.09,1.094,0.0423,0.0423,0.939,1034,1034,15,1,139,16.9,115.9,113.1,36.2,37.3,115,37.0,112,38.2,89.0,39.7,38.2,44.3,4.06,4.06,4.62,-3.36,0.032270,0.85139603,0.199710,2.98095255
33.00,4.167,12.417,72.024,95.317,5477.749,819.592,0.9740,77.0,0.205,80.4,0.566,34.1,87.2,114,73.6,5.79,4.64,6.46,534.832,2247.77,12.00,0.029,0.0478,36.2986,6.42,4.87,37.0,32.9,0.819,251,206,88,0.95,0.658,0.0423,0.0423,0.939,1033,1033,15,1,115,36.3,113.6,110.7,38.0,39.1,113,38.1,111,39.2,89.0,39.7,38.2,44.3,4.06,4.06,3.91,-2.64,0.032272,0.85423849,0.199764,2.99058025
34.00,4.167,16.583,72.025,95.271,5473.623,818.969,0.9740,77.0,-0.032,80.3,0.566,34.1,76.9,114,73.6,5.79,4.58,6.45,534.832,2242.89,12.00,0.029,0.0478,36.2986,6.42,4.92,37.0,32.9,0.818,250,205,69,0.83,0.295,0.0423,0.0423,0.940,1033,1033,15,1,115,36.4,112.2,109.5,39.0,40.0,112,39.2,109,40.2,89.1,39.6,38.2,44.3,4.06,4.06,3.38,-2.13,0.032274,0.85708018,0.199827,3.00020864
35.00,4.167,20.750,72.027,95.237,5469.498,818.345,0.9741,77.0,-0.073,80.3,0.566,34.1,97.4,114,73.5,5.78,4.63,6.45,534.892,2364.45,12.05,0.029,0.0478,36.3143,6.44,6.21,37.0,32.9,0.816,247,202,105,1.10,0.928,0.0423,0.0423,0.940,1033,1033,15,1,152,6.0,112.3,109.6,38.8,39.7,111,39.7,108,40.7,89.1,39.6,38.2,44.3,4.06,4.06,3.62,-2.87,0.032275,0.85992045,0.199893,3.00983758
36.00,4.167,24.917,72.032,95.203,5465.370,817.721,0.9740,77.1,-0.041,80.2,0.565,34.1,114.1,114,73.5,5.78,4.69,6.45,534.892,2746.27,12.05,0.029,0.0478,36.3143,6.44,7.74,37.0,32.9,0.819,251,206,136,1.27,1.560,0.0423,0.0423,0.940,1033,1033,15,1,160,0.3,117.8,115.0,34.5,35.6,116,36.4,113,37.6,89.1,39.7,38.2,44.3,4.07,4.07,5.06,-4.49,0.032276,0.86276092,0.199938,3.01946839
37.00,4.167,29.083,72.040,95.166,5461.242,817.097,0.9739,77.1,0.021,80.2,0.565,34.1,102.8,114,73.5,5.78,4.74,6.44,534.892,2635.43,12.05,0.029,0.0478,36.3143,6.44,6.30,37.1,32.9,0.820,252,207,116,1.13,1.202,0.0423,0.0423,0.940,1034,1034,15,1,138,17.8,115.9,113.1,36.3,37.3,115,37.0,112,38.2,89.1,39.7,38.2,44.3,4.07,4.07,4.79,-3.50,0.032278,0.86560263,0.199981,3.02910108
38.00,4.167,33.250,72.052,95.128,5457.115,816.473,0.9740,77.0,0.205,80.1,0.565,34.1,89.9,114,73.5,5.77,4.62,6.44,534.892,2246.98,12.05,0.029,0.0478,36.3143,6.44,4.88,37.1,32.9,0.819,252,206,93,0.98,0.749,0.0423,0.0423,0.941,1033,1033,15,1,115,36.3,113.6,110.8,38.0,39.0,113,38.1,111,39.2,89.1,39.7,38.2,44.3,4.07,4.07,4.02,-2.73,0.032281,0.86844438,0.200035,3.03873333
39.00,4.167,37.417,72.069,95.091,5452.990,815.849,0.9741,77.0,-0.039,80.0,0.565,34.1,79.2,114,73.4,5.77,4.55,6.43,534.892,2242.89,12.05,0.029,0.0478,36.3143,6.44,4.92,37.1,32.9,0.819,251,205,74,0.85,0.372,0.0423,0.0423,0.941,1033,1033,15,1,115,36.3,112.3,109.5,39.0,40.0,112,39.2,109,40.2,89.1,39.6,38.1,44.3,4.07,4.07,3.47,-2.20,0.032282,0.87128513,0.200099,3.04836429
40.00,4.167,41.583,72.119,95.022,5448.865,815.225,0.9741,77.0,-0.048,79.8,0.565,34.1,86.1,114,73.4,5.76,4.58,6.42,534.955,2373.60,12.05,0.029,0.0478,36.2916,6.45,6.26,37.1,32.9,0.816,247,202,85,0.96,0.540,0.0423,0.0423,0.942,1033,1033,15,1,154,5.1,112.5,109.8,38.6,39.6,111,39.6,109,40.6,89.2,39.6,38.1,44.3,4.07,4.07,3.31,-2.68,0.032284,0.87412421,0.200170,3.05799375
41.00,4.167,45.750,72.154,95.003,5444.737,814.601,0.9740,77.1,0.017,79.8,0.565,34.1,113.0,114,73.4,5.75,4.64,6.41,534.955,2750.10,12.05,0.029,0.0478,36.2916,6.45,7.74,37.1,32.9,0.818,250,205,135,1.26,1.509,0.0423,0.0423,0.942,1033,1033,15,1,160,0.3,117.9,115.2,34.4,35.6,116,36.3,113,37.5,89.2,39.7,38.1,44.3,4.07,4.07,4.82,-4.30,0.032284,0.87696264,0.200222,3.06762253
42.00,4.167,49.917,72.196,94.988,5440.609,813.978,0.9740,77.1,-0.010,79.7,0.564,34.1,106.2,114,73.4,5.75,4.70,6.41,534.955,2627.46,12.05,0.029,0.0478,36.2916,6.45,6.24,37.1,32.9,0.820,252,207,123,1.16,1.314,0.0423,0.0423,0.943,1034,1034,15,1,137,18.7,115.9,113.1,36.3,37.3,115,37.0,112,38.2,89.1,39.7,38.1,44.3,4.07,4.07,4.95,-3.66,0.032286,0.87980218,0.200268,3.07725132
43.00,4.167,54.083,72.244,94.974,5436.482,813.354,0.9741,77.0,0.161,79.6,0.564,34.1,92.8,114,73.4,5.75,4.62,6.40,534.955,2246.33,12.05,0.029,0.0478,36.2916,6.45,4.89,37.1,32.9,0.819,252,206,99,1.01,0.848,0.0423,0.0423,0.943,1033,1033,15,1,115,36.3,113.7,110.9,38.0,39.0,114,38.1,111,39.2,89.2,39.7,38.1,44.3,4.07,4.07,4.15,-2.82,0.032288,0.88264213,0.200324,3.08687839
44.00,4.167,58.250,72.298,94.962,5432.356,812.730,0.9741,77.0,-0.006,79.5,0.564,34.1,81.4,114,73.4,5.75,4.53,6.40,534.955,2242.89,12.05,0.029,0.0478,36.2916,6.45,4.92,37.1,32.9,0.819,251,205,78,0.87,0.445,0.0423,0.0423,0.944,1033,1033,15,1,115,36.3,112.4,109.6,39.0,40.0,112,39.2,109,40.2,89.2,39.6,38.1,44.3,4.07,4.07,3.55,-2.26,0.032289,0.88548144,0.200390,3.09650236
45.00,4.167,62.417,72.411,95.693,5428.231,812.106,0.9742,77.0,-0.048,78.5,0.559,34.1,87.3,114,74.3,5.68,4.55,6.37,535.018,2382.80,12.05,0.029,0.0477,36.2578,6.45,6.31,37.1,32.9,0.816,247,202,87,0.97,0.581,0.0424,0.0424,0.962,1033,1033,15,1,154,4.4,112.7,110.0,38.5,39.5,111,39.6,109,40.5,89.3,39.6,38.1,44.3,4.08,4.08,3.34,-2.75,0.032290,0.88832055,0.200462,3.10612464
46.00,4.167,66.583,72.449,95.674,5424.103,811.482,0.9741,77.1,-0.088,78.2,0.558,34.1,113.9,114,74.5,5.67,4.62,6.35,535.018,2753.71,12.05,0.029,0.0477,36.2578,6.45,7.74,37.1,32.9,0.818,251,205,136,1.27,1.550,0.0424,0.0424,0.964,1033,1033,15,1,160,0.3,118.1,115.3,34.4,35.5,116,36.2,113,37.4,89.2,39.6,38.1,44.3,4.08,4.08,4.95,-4.38,0.032291,0.89116070,0.200513,3.11574782
47.00,4.167,70.750,72.473,95.516,5419.975,810.858,0.9741,77.1,0.021,78.1,0.558,34.1,102.0,114,74.4,5.66,4.67,6.34,535.018,2619.31,12.05,0.029,0.0477,36.2578,6.45,6.19,37.1,32.9,0.820,252,207,115,1.12,1.169,0.0424,0.0424,0.964,1034,1034,15,1,136,19.6,115.9,113.1,36.3,37.4,115,37.0,112,38.2,89.2,39.7,38.1,44.3,4.08,4.08,4.69,-3.44,0.032292,0.89400315,0.200559,3.12537396
48.00,4.167,74.917,72.490,95.320,5415.849,810.235,0.9741,77.0,0.212,78.0,0.558,34.1,87.7,114,74.2,5.65,4.54,6.33,535.018,2245.77,12.05,0.029,0.0477,36.2578,6.45,4.89,37.1,32.9,0.819,252,206,89,0.95,0.666,0.0424,0.0424,0.963,1033,1033,15,1,115,36.2,113.8,110.9,38.0,39.0,114,38.1,111,39.2,89.3,39.6,38.1,44.3,4.08,4.08,3.88,-2.64,0.032294,0.89684564,0.200618,3.13500087
49.00,4.167,79.083,72.522,94.984,5411.724,809.611,0.9742,77.0,0.002,77.7,0.558,34.1,76.0,113,73.9,5.64,4.49,6.31,535.018,2242.89,12.05,0.029,0.0477,36.2578,6.45,4.92,37.1,32.9,0.818,250,205,68,0.81,0.258,0.0424,0.0424,0.962,1033,1033,15,1,115,36.3,112.4,109.7,39.0,40.0,112,39.1,109,40.2,89.3,39.6,38.1,44.3,4.08,4.08,3.29,-2.10,0.032296,0.89968644,0.200689,3.14462790
50.00,4.167,83.250,72.547,94.877,5407.599,808.987,0.9743,77.0,-0.090,77.6,0.558,34.1,105.4,113,73.8,5.63,4.56,6.30,535.076,2392.04,12.05,0.029,0.0477,36.2350,6.45,6.36,37.1,32.9,0.817,249,203,120,1.18,1.207,0.0424,0.0424,0.962,1033,1033,15,1,155,3.7,113.0,110.3,38.4,39.3,112,39.5,109,40.5,89.3,39.6,38.1,44.3,4.08,4.08,4.03,-3.34,0.032296,0.90252485,0.200759,3.15425466
51.00,4.167,87.417,72.583,94.814,5403.471,808.363,0.9742,77.1,-0.034,77.5,0.558,34.1,110.5,113,73.8,5.62,4.63,6.30,535.076,2757.08,12.05,0.029,0.0477,36.2350,6.45,7.74,37.1,32.9,0.819,252,207,131,1.22,1.447,0.0424,0.0424,0.963,1033,1033,15,1,160,0.3,118.2,115.4,34.4,35.5,116,36.2,113,37.4,89.3,39.6,38.1,44.3,4.08,4.08,5.14,-4.46,0.032296,0.90536343,0.200808,3.16388239
52.00,4.167,91.583,72.629,94.782,5399.345,807.739,0.9741,77.0,0.098,77.4,0.557,34.1,94.9,113,73.8,5.62,4.58,6.29,535.076,2610.99,12.05,0.029,0.0477,36.2350,6.45,6.14,37.1,32.9,0.819,252,207,103,1.03,0.913,0.0424,0.0424,0.963,1034,1034,15,1,135,20.5,115.9,113.1,36.3,37.4,115,37.0,112,38.2,89.3,39.6,38.1,44.3,4.09,4.09,4.28,-3.13,0.032297,0.90820260,0.200864,3.17350948
53.00,4.167,95.750,72.687,94.770,5395.219,807.115,0.9742,77.0,0.044,77.2,0.557,34.1,82.1,113,73.8,5.61,4.48,6.28,535.076,2245.31,12.05,0.029,0.0477,36.2350,6.45,4.90,37.1,32.9,0.819,251,206,80,0.88,0.467,0.0424,0.0424,0.964,1033,1033,15,1,115,36.2,113.8,111.0,37.9,39.0,114,38.1,111,39.1,89.3,39.6,38.1,44.3,4.09,4.09,3.60,-2.45,0.032299,0.91104067,0.200933,3.18313292
54.00,4.167,99.917,72.832,94.778,5391.095,806.492,0.9743,77.0,-0.017,77.0,0.556,34.1,80.9,113,73.8,5.61,4.50,6.27,535.076,2242.89,12.05,0.029,0.0477,36.2350,6.45,4.92,37.1,32.9,0.816,248,202,76,0.89,0.368,0.0424,0.0424,0.965,1033,1033,15,1,115,36.3,112.5,109.8,38.9,39.9,112,39.1,110,40.1,89.4,39.6,38.1,44.3,4.09,4.09,3.17,-2.05,0.032301,0.91387683,0.201013,3.19275274
55.00,4.167,104.083,72.918,94.792,5386.968,805.868,0.9743,77.1,0.017,76.9,0.556,34.1,112.4,113,73.8,5.61,4.56,6.26,535.127,2401.31,12.05,0.029,0.0477,36.2117,6.45,6.41,37.1,32.9,0.818,251,205,135,1.24,1.481,0.0424,0.0424,0.966,1033,1033,15,1,156,3.2,113.2,110.5,38.2,39.2,112,39.4,109,40.4,89.4,39.5,38.1,44.3,4.09,4.09,4.70,-3.84,0.032300,0.91671198,0.201075,3.20236983
56.00,4.167,108.250,73.010,94.811,5382.840,805.244,0.9742,77.1,0.004,76.8,0.556,34.1,103.2,113,73.9,5.61,4.63,6.26,535.127,2760.21,12.05,0.029,0.0477,36.2117,6.45,7.74,37.1,32.9,0.819,253,207,119,1.12,1.202,0.0424,0.0424,0.966,1033,1033,15,1,160,0.3,118.3,115.5,34.3,35.5,116,36.2,113,37.4,89.4,39.6,38.0,44.3,4.09,4.09,4.84,-4.13,0.032300,0.91954858,0.201129,3.21198554
57.00,4.167,112.417,73.109,94.828,5378.714,804.620,0.9742,77.0,0.205,76.7,0.556,34.1,89.0,113,73.9,5.61,4.50,6.25,535.127,2602.52,12.05,0.029,0.0477,36.2117,6.45,6.08,37.1,32.9,0.819,252,206,93,0.96,0.707,0.0424,0.0424,0.966,1034,1034,15,1,134,21.3,115.9,113.2,36.4,37.4,115,37.0,112,38.1,89.3,39.6,38.0,44.3,4.09,4.09,3.94,-2.89,0.032302,0.92238546,0.201196,3.22159769
58.00,4.167,116.583,73.320,94.846,5374.589,803.997,0.9742,77.0,-0.032,76.5,0.555,34.1,77.4,113,74.0,5.61,4.43,6.24,535.127,2244.92,12.05,0.029,0.0477,36.2117,6.45,4.90,37.1,32.9,0.818,251,205,72,0.82,0.302,0.0424,0.0424,0.966,1033,1033,15,1,115,36.2,113.9,111.1,37.9,39.0,114,38.0,111,39.1,89.4,39.6,38.0,44.3,4.09,4.09,3.34,-2.27,0.032304,0.92522127,0.201274,3.23120572
59.00,4.167,120.750,73.431,94.841,5370.464,803.373,0.9743,77.0,-0.090,76.4,0.555,34.1,101.5,113,74.0,5.61,4.50,6.23,535.127,2242.89,12.05,0.029,0.0477,36.2117,6.45,4.92,37.1,32.9,0.816,249,203,114,1.13,1.064,0.0424,0.0424,0.966,1033,1033,15,1,115,36.2,112.6,109.9,38.9,39.9,112,39.1,110,40.1,89.4,39.5,38.0,44.3,4.10,4.10,3.75,-2.54,0.032305,0.92805539,0.201355,3.24081018
60.00,4.167,124.917,73.544,94.840,5366.336,802.749,0.9744,77.1,-0.034,76.3,0.555,34.1,112.1,113,74.0,5.61,4.56,6.23,535.173,2410.61,12.05,0.029,0.0476,36.1862,6.45,6.45,37.1,32.9,0.819,252,207,135,1.23,1.489,0.0424,0.0424,0.966,1033,1033,15,1,157,2.7,113.4,110.7,38.1,39.1,112,39.3,109,40.3,89.5,39.5,38.0,44.3,4.10,4.10,5.01,-4.06,0.032304,0.93089016,0.201413,3.25041338
61.00,4.167,129.083,73.660,94.842,5362.209,802.125,0.9743,77.0,0.086,76.2,0.554,34.1,96.5,113,74.1,5.62,4.54,6.22,535.173,2763.09,12.05,0.029,0.0476,36.1862,6.45,7.73,37.1,32.9,0.819,253,207,107,1.04,0.969,0.0424,0.0424,0.965,1033,1033,15,1,160,0.3,118.4,115.6,34.3,35.4,116,36.1,113,37.3,89.4,39.6,38.0,44.3,4.10,4.10,4.40,-3.77,0.032305,0.93372636,0.201476,3.26001533
62.00,4.167,133.250,73.779,94.840,5358.083,801.501,0.9743,77.0,0.057,76.2,0.554,34.1,83.7,113,74.1,5.62,4.44,6.22,535.173,2593.89,12.05,0.029,0.0476,36.1862,6.45,6.03,37.1,32.9,0.818,252,206,84,0.89,0.517,0.0424,0.0424,0.965,1034,1034,15,1,133,22.2,116.0,113.2,36.4,37.4,115,37.0,112,38.1,89.4,39.6,38.0,44.3,4.10,4.10,3.65,-2.68,0.032307,0.93656212,0.201552,3.26961366
63.00,4.167,137.417,74.021,94.828,5353.959,800.878,0.9743,77.0,0.026,76.0,0.554,34.1,76.4,113,74.1,5.62,4.43,6.21,535.173,2244.59,12.05,0.029,0.0476,36.1862,6.45,4.90,37.1,32.9,0.817,249,204,69,0.82,0.240,0.0424,0.0424,0.964,1033,1033,15,1,115,36.2,114.0,111.2,37.9,39.0,114,38.0,111,39.1,89.4,39.6,38.0,44.3,4.10,4.10,3.13,-2.15,0.032310,0.93939649,0.201638,3.27920911
64.00,4.167,141.583,74.144,94.811,5349.832,800.254,0.9744,77.0,0.668,75.9,0.554,34.1,111.8,113,74.1,5.63,4.50,6.20,535.173,2242.89,12.05,0.029,0.0476,36.1862,6.45,4.92,37.1,32.9,0.817,251,205,135,1.23,1.450,0.0424,0.0424,0.963,1033,1033,15,1,115,36.2,112.7,110.0,38.9,39.9,112,39.1,110,40.1,89.5,39.5,38.0,44.3,4.10,4.10,4.50,-3.07,0.032310,0.94222991,0.201710,3.28880266
65.00,4.167,145.750,74.269,95.267,5345.704,799.630,0.9744,77.0,0.012,75.6,0.552,34.1,103.1,113,74.3,5.62,4.56,6.19,535.211,2419.91,12.05,0.029,0.0476,36.1552,6.45,6.50,37.1,32.9,0.819,253,208,119,1.11,1.198,0.0424,0.0424,0.970,1033,1033,15,1,157,2.3,113.7,111.0,37.9,39.0,112,39.2,109,40.3,89.5,39.5,37.9,44.3,4.11,4.11,4.76,-3.85,0.032309,0.94506604,0.201767,3.29839709
66.00,4.167,149.917,74.382,95.647,5341.577,799.006,0.9744,77.0,0.205,75.1,0.550,34.1,87.6,114,75.1,5.58,4.43,6.17,535.211,2765.72,12.05,0.029,0.0476,36.1552,6.45,7.73,37.1,32.9,0.819,253,207,91,0.94,0.657,0.0424,0.0424,0.980,1033,1033,15,1,160,0.3,118.5,115.7,34.2,35.4,116,36.1,113,37.3,89.5,39.5,37.9,44.3,4.11,4.11,3.89,-3.34,0.032310,0.94790470,0.201837,3.30799141
67.00,4.167,154.083,74.545,95.488,5337.453,798.383,0.9743,77.0,0.065,74.7,0.549,34.1,75.0,113,75.2,5.57,4.40,6.15,535.211,2585.12,12.05,0.029,0.0476,36.1552,6.45,5.97,37.1,32.9,0.818,251,206,67,0.79,0.218,0.0424,0.0424,0.981,1034,1034,15,1,132,22.9,116.1,113.3,36.4,37.5,115,36.9,113,38.1,89.5,39.6,37.9,44.3,4.11,4.11,3.21,-2.35,0.032313,0.95074332,0.201920,3.31758641
68.00,4.167,158.250,74.603,95.280,5333.327,797.759,0.9744,77.0,0.668,74.6,0.549,34.1,111.5,113,75.0,5.57,4.47,6.15,535.211,2244.32,12.05,0.029,0.0476,36.1552,6.45,4.91,37.1,32.9,0.817,251,206,133,1.23,1.439,0.0424,0.0424,0.979,1033,1033,15,1,115,36.2,114.1,111.3,37.9,39.0,114,38.0,111,39.1,89.5,39.5,37.9,44.3,4.11,4.11,4.54,-3.26,0.032314,0.95358101,0.201991,3.32718402
69.00,4.167,162.417,74.653,95.065,5329.200,797.135,0.9745,77.0,0.012,74.5,0.549,34.1,102.2,113,74.8,5.56,4.54,6.13,535.211,2242.89,12.05,0.029,0.0476,36.1552,6.45,4.92,37.1,32.9,0.819,254,208,117,1.11,1.164,0.0424,0.0424,0.978,1033,1033,15,1,115,36.2,112.7,110.0,38.9,39.9,112,39.1,110,40.1,89.6,39.5,37.9,44.3,4.11,4.11,4.64,-3.00,0.032314,0.95642025,0.202048,3.33678652
70.00,4.167,166.583,74.703,94.901,5325.075,796.512,0.9745,77.0,0.205,74.4,0.549,34.1,86.8,113,74.7,5.56,4.41,6.13,535.239,2429.21,12.05,0.029,0.0476,36.1417,6.45,6.55,37.1,32.9,0.819,253,207,89,0.93,0.623,0.0424,0.0424,0.977,1033,1033,15,1,157,2.0,113.9,111.2,37.8,38.8,112,39.2,110,40.2,89.6,39.4,37.9,44.3,4.11,4.11,3.89,-3.31,0.032314,0.95925924,0.202120,3.34639051
71.00,4.167,170.750,74.816,94.701,5320.951,795.888,0.9744,77.0,0.065,74.2,0.548,34.1,74.5,112,74.5,5.55,4.38,6.11,535.239,2768.07,12.05,0.029,0.0476,36.1417,6.45,7.72,37.1,32.9,0.818,252,206,67,0.79,0.194,0.0424,0.0424,0.976,1033,1033,15,1,160,0.3,118.6,115.9,34.2,35.3,116,36.0,113,37.3,89.6,39.5,37.9,44.3,4.11,4.11,3.25,-2.81,0.032316,0.96209597,0.202205,3.35599430
72.00,4.167,174.917,74.885,94.653,5316.826,795.264,0.9744,77.0,0.668,74.0,0.548,34.1,110.9,112,74.5,5.54,4.46,6.10,535.239,2576.21,12.05,0.029,0.0476,36.1417,6.45,5.92,37.1,32.9,0.817,252,206,133,1.22,1.413,0.0424,0.0424,0.976,1034,1034,15,1,131,23.7,116.1,113.3,36.4,37.5,115,36.9,113,38.1,89.5,39.5,37.9,44.3,4.12,4.12,4.59,-3.51,0.032317,0.96493052,0.202279,3.36559786
73.00,4.167,179.083,74.963,94.630,5312.699,794.640,0.9744,77.0,0.012,73.9,0.548,34.1,101.9,112,74.5,5.54,4.52,6.09,535.239,2244.09,12.05,0.029,0.0476,36.1417,6.45,4.91,37.1,32.9,0.819,254,208,117,1.10,1.149,0.0424,0.0424,0.977,1033,1033,15,1,116,36.2,114.1,111.3,37.9,39.0,114,38.0,111,39.1,89.5,39.5,37.9,44.3,4.12,4.12,4.66,-3.20,0.032318,0.96776629,0.202339,3.37520250
74.00,4.167,183.250,75.049,94.602,5308.574,794.017,0.9745,77.0,0.175,73.8,0.547,34.1,86.8,112,74.5,5.54,4.39,6.09,535.239,2242.89,12.05,0.029,0.0476,36.1417,6.45,4.92,37.1,32.9,0.818,253,207,90,0.92,0.619,0.0424,0.0424,0.977,1033,1033,15,1,116,36.2,112.8,110.0,38.9,39.9,113,39.1,110,40.1,89.6,39.4,37.9,44.3,4.12,4.12,3.78,-2.42,0.032319,0.97060202,0.202414,3.38480476
75.00,4.167,187.417,75.247,94.636,5304.451,793.393,0.9745,76.9,0.058,73.6,0.547,34.1,74.6,112,74.5,5.54,4.36,6.07,535.234,2438.50,12.05,0.029,0.0475,36.1185,6.45,6.59,37.1,32.9,0.817,252,206,67,0.78,0.197,0.0424,0.0424,0.977,1033,1033,15,1,158,1.7,114.2,111.5,37.6,38.7,112,39.0,110,40.1,89.6,39.4,37.8,44.3,4.12,4.12,3.28,-2.92,0.032320,0.97343597,0.202503,3.39440344
76.00,4.167,191.583,75.356,94.658,5300.326,792.769,0.9744,77.0,0.668,73.5,0.547,34.1,110.8,112,74.6,5.54,4.43,6.07,535.234,2770.17,12.05,0.029,0.0475,36.1185,6.45,7.71,37.1,32.9,0.817,252,206,133,1.21,1.409,0.0424,0.0424,0.978,1033,1033,15,1,160,0.3,118.7,116.0,34.1,35.3,116,36.0,114,37.2,89.5,39.5,37.8,44.3,4.12,4.12,4.65,-4.00,0.032320,0.97626826,0.202581,3.40399932
77.00,4.167,195.750,75.470,94.675,5296.199,792.146,0.9744,77.0,0.022,73.4,0.546,34.1,102.0,112,74.6,5.54,4.49,6.06,535.234,2567.18,12.05,0.029,0.0475,36.1185,6.45,5.86,37.1,32.9,0.819,254,208,118,1.09,1.150,0.0424,0.0424,0.978,1034,1034,15,1,130,24.4,116.1,113.3,36.4,37.5,115,36.9,113,38.1,89.5,39.5,37.8,44.3,4.12,4.12,4.67,-3.43,0.032322,0.97910224,0.202645,3.41359458
78.00,4.167,199.917,75.588,94.687,5292.073,791.522,0.9744,76.9,0.175,73.3,0.546,34.1,86.9,112,74.7,5.54,4.36,6.06,535.234,2243.90,12.05,0.029,0.0475,36.1185,6.45,4.91,37.1,32.9,0.818,254,208,90,0.92,0.623,0.0424,0.0424,0.977,1033,1033,15,1,116,36.1,114.2,111.4,37.9,39.0,114,38.0,111,39.1,89.6,39.5,37.8,44.3,4.12,4.12,3.78,-2.58,0.032324,0.98193663,0.202723,3.42318659
79.00,4.167,204.083,75.833,94.694,5287.950,790.898,0.9745,76.9,0.058,73.1,0.546,34.1,74.8,112,74.7,5.55,4.34,6.05,535.234,2242.89,12.05,0.029,0.0475,36.1185,6.45,4.92,37.1,32.9,0.817,253,206,68,0.78,0.202,0.0424,0.0424,0.977,1033,1033,15,1,116,36.1,112.9,110.2,38.9,39.9,113,39.1,110,40.1,89.6,39.4,37.8,44.3,4.13,4.13,3.16,-2.02,0.032325,0.98476962,0.202814,3.43277482
80.00,4.167,208.250,75.958,94.694,5283.825,790.275,0.9745,77.0,0.668,73.0,0.545,34.1,111.2,112,74.8,5.55,4.41,6.04,535.223,2447.77,12.05,0.029,0.0475,36.0813,6.45,6.64,37.1,32.9,0.817,253,206,135,1.21,1.424,0.0424,0.0424,0.976,1033,1033,15,1,158,1.5,114.4,111.8,37.5,38.5,113,38.9,110,40.0,89.6,39.4,37.8,44.3,4.13,4.13,4.62,-4.00,0.032325,0.98760127,0.202895,3.44236051
81.00,4.167,212.417,76.085,95.115,5279.697,789.651,0.9745,77.0,0.033,72.7,0.543,34.1,100.2,112,74.8,5.53,4.44,6.03,535.223,2772.03,12.05,0.029,0.0475,36.0813,6.45,7.71,37.1,32.9,0.819,255,209,115,1.07,1.090,0.0424,0.0424,0.984,1033,1033,15,1,160,0.3,118.7,116.0,34.1,35.3,117,36.0,114,37.2,89.6,39.5,37.8,44.3,4.13,4.13,4.57,-3.78,0.032326,0.99043580,0.202959,3.45194693
82.00,4.167,216.583,76.202,95.489,5275.572,789.027,0.9744,76.9,0.062,72.1,0.541,34.1,84.2,113,75.7,5.50,4.32,6.02,535.223,2558.02,12.05,0.029,0.0475,36.0813,6.45,5.81,37.1,32.9,0.818,254,208,85,0.89,0.530,0.0424,0.0424,0.994,1034,1034,15,1,129,25.1,116.1,113.4,36.5,37.6,116,36.9,113,38.1,89.6,39.5,37.8,44.3,4.13,4.13,3.64,-2.66,0.032328,0.99327249,0.203038,3.46153236
83.00,4.167,220.750,76.378,95.348,5271.449,788.404,0.9745,76.9,-0.073,71.8,0.540,34.1,93.0,113,75.8,5.48,4.34,6.00,535.223,2243.74,12.05,0.029,0.0475,36.0813,6.45,4.91,37.1,32.9,0.815,250,204,100,1.02,0.758,0.0424,0.0424,0.996,1033,1033,15,1,116,36.1,114.3,111.5,37.9,38.9,114,38.0,111,39.1,89.6,39.4,37.7,44.3,4.13,4.13,3.47,-2.45,0.032331,0.99610858,0.203130,3.47111809
84.00,4.167,224.917,76.443,95.149,5267.323,787.780,0.9746,77.0,-0.037,71.7,0.540,34.1,110.1,112,75.6,5.48,4.43,5.99,535.223,2242.89,12.05,0.029,0.0475,36.0813,6.45,4.92,37.1,32.9,0.818,255,209,133,1.19,1.417,0.0424,0.0424,0.994,1033,1033,15,1,116,36.1,112.9,110.2,38.9,39.9,113,39.1,110,40.1,89.6,39.4,37.7,44.3,4.13,4.13,4.90,-3.26,0.032331,0.99894519,0.203195,3.48070746
85.00,4.167,229.083,76.501,94.963,5263.197,787.156,0.9746,76.9,0.172,71.6,0.540,34.1,91.8,112,75.5,5.48,4.36,5.98,535.206,2457.01,12.05,0.029,0.0475,36.0624,6.45,6.69,37.1,32.9,0.818,255,209,99,0.98,0.790,0.0424,0.0424,0.993,1033,1033,15,1,158,1.3,114.6,111.9,37.4,38.4,113,38.9,110,39.9,89.6,39.4,37.7,44.4,4.13,4.13,4.14,-3.58,0.032331,1.00178332,0.203267,3.49030044
86.00,4.167,233.250,76.618,94.696,5259.074,786.533,0.9745,76.9,0.009,71.4,0.539,34.1,77.4,112,75.2,5.47,4.28,5.96,535.206,2773.59,12.05,0.029,0.0475,36.0624,6.45,7.70,37.1,32.9,0.817,254,207,73,0.81,0.288,0.0424,0.0424,0.991,1033,1033,15,1,160,0.3,118.8,116.1,34.1,35.3,117,35.9,114,37.2,89.6,39.4,37.7,44.4,4.14,4.14,3.36,-2.80,0.032332,1.00461969,0.203355,3.49989361
87.00,4.167,237.417,76.683,94.616,5254.951,785.909,0.9745,77.0,0.482,71.3,0.539,34.1,109.2,112,75.1,5.47,4.36,5.95,535.206,2548.76,12.05,0.029,0.0475,36.0624,6.45,5.75,37.1,32.9,0.817,253,206,131,1.19,1.341,0.0424,0.0424,0.991,1034,1034,15,1,128,25.8,116.1,113.4,36.5,37.6,116,36.9,113,38.1,89.6,39.5,37.7,44.4,4.14,4.14,4.45,-3.40,0.032335,1.00745337,0.203440,3.50948710
88.00,4.167,241.583,76.755,94.565,5250.825,785.286,0.9745,77.0,0.022,71.2,0.539,34.1,100.8,112,75.1,5.46,4.42,5.95,535.206,2243.60,12.05,0.029,0.0475,36.0624,6.45,4.91,37.1,32.9,0.818,256,209,116,1.08,1.103,0.0424,0.0424,0.991,1033,1033,15,1,116,36.1,114.2,111.5,37.9,39.0,114,38.0,111,39.1,89.6,39.4,37.7,44.4,4.14,4.14,4.58,-3.14,0.032336,1.01028823,0.203505,3.51908283
89.00,4.167,245.750,76.836,94.514,5246.701,784.662,0.9746,76.9,0.125,71.0,0.539,34.1,84.7,112,75.1,5.46,4.29,5.94,535.206,2242.89,12.05,0.029,0.0475,36.0624,6.45,4.92,37.1,32.9,0.818,255,208,87,0.89,0.539,0.0424,0.0424,0.992,1033,1033,15,1,116,36.1,112.9,110.2,38.9,39.9,113,39.1,110,40.1,89.6,39.4,37.7,44.4,4.14,4.14,3.66,-2.34,0.032337,1.01312294,0.203587,3.52867686
90.00,4.167,249.917,77.021,94.523,5242.579,784.038,0.9746,76.9,-0.061,70.9,0.538,34.1,87.0,112,75.1,5.46,4.30,5.93,535.156,2466.21,12.05,0.029,0.0474,36.0550,6.45,6.73,37.1,32.9,0.815,251,204,89,0.95,0.550,0.0424,0.0424,0.992,1033,1033,15,1,159,1.1,114.8,112.2,37.2,38.3,113,38.7,110,39.8,89.6,39.4,37.7,44.4,4.14,4.14,3.40,-3.15,0.032338,1.01595530,0.203684,3.53826789
91.00,4.167,254.083,77.124,94.538,5238.454,783.415,0.9745,77.0,-0.038,70.8,0.538,34.1,111.0,112,75.2,5.46,4.38,5.92,535.156,2774.91,12.05,0.029,0.0474,36.0550,6.45,7.68,37.1,32.9,0.818,255,208,135,1.20,1.431,0.0424,0.0424,0.992,1033,1033,15,1,160,0.3,118.9,116.2,34.1,35.3,117,35.9,114,37.2,89.6,39.4,37.6,44.4,4.14,4.14,5.00,-4.14,0.032338,1.01878697,0.203756,3.54785775
92.00,4.167,258.250,77.233,94.553,5234.328,782.791,0.9745,76.9,0.161,70.7,0.538,34.1,93.1,111,75.2,5.46,4.33,5.92,535.156,2539.39,12.05,0.029,0.0474,36.0550,6.45,5.70,37.1,32.9,0.818,256,209,103,0.99,0.832,0.0424,0.0424,0.992,1034,1034,15,1,128,26.5,116.1,113.4,36.5,37.6,116,36.9,113,38.1,89.6,39.5,37.6,44.4,4.15,4.15,4.12,-3.01,0.032340,1.02162043,0.203831,3.55744683
93.00,4.167,262.417,77.464,94.575,5230.205,782.167,0.9745,76.9,-0.032,70.5,0.537,34.1,78.7,111,75.3,5.46,4.24,5.91,535.156,2243.49,12.05,0.029,0.0474,36.0550,6.45,4.91,37.1,32.9,0.817,255,208,76,0.82,0.330,0.0425,0.0425,0.992,1033,1033,15,1,116,36.1,114.3,111.6,37.9,39.0,114,38.0,111,39.1,89.6,39.4,37.6,44.4,4.15,4.15,3.36,-2.27,0.032343,1.02445297,0.203923,3.56703192
94.00,4.167,266.583,77.585,94.578,5226.082,781.544,0.9746,76.9,0.174,70.4,0.537,34.1,107.1,111,75.3,5.46,4.32,5.90,535.156,2242.89,12.05,0.029,0.0474,36.0550,6.45,4.92,37.1,32.9,0.816,253,206,128,1.16,1.260,0.0425,0.0425,0.992,1033,1033,15,1,116,36.1,113.1,110.3,38.9,39.9,113,39.1,110,40.1,89.6,39.3,37.6,44.4,4.15,4.15,4.20,-2.75,0.032344,1.02728345,0.204015,3.57661390
95.00,4.167,270.750,77.708,94.581,5221.956,780.920,0.9746,77.0,0.017,70.3,0.537,34.1,102.5,111,75.3,5.46,4.39,5.90,535.105,2475.39,12.05,0.029,0.0474,36.0193,6.45,6.77,37.1,32.9,0.818,256,210,120,1.09,1.159,0.0425,0.0425,0.991,1033,1033,15,1,159,1.0,115.0,112.4,37.1,38.2,113,38.7,110,39.7,89.6,39.3,37.6,44.4,4.15,4.15,4.79,-4.01,0.032344,1.03011550,0.204086,3.58619584
96.00,4.167,274.917,77.833,94.587,5217.832,780.297,0.9745,76.9,0.136,70.3,0.536,34.1,86.2,111,75.4,5.47,4.26,5.89,535.105,2775.98,12.05,0.029,0.0474,36.0193,6.45,7.67,37.1,32.9,0.817,256,209,90,0.90,0.590,0.0425,0.0425,0.991,1033,1033,15,1,160,0.3,119.0,116.2,34.1,35.3,117,35.9,114,37.2,89.6,39.4,37.6,44.4,4.15,4.15,3.79,-3.02,0.032345,1.03294829,0.204172,3.59577535
97.00,4.167,279.083,78.088,95.002,5213.710,779.673,0.9745,76.9,-0.061,69.8,0.534,34.1,88.2,112,75.4,5.45,4.26,5.88,535.105,2529.92,12.05,0.029,0.0474,36.0193,6.45,5.64,37.1,32.9,0.815,251,205,92,0.95,0.592,0.0425,0.0425,0.998,1034,1034,15,1,127,27.1,116.2,113.4,36.5,37.6,116,36.9,113,38.1,89.6,39.4,37.5,44.4,4.15,4.15,3.39,-2.45,0.032349,1.03577952,0.204271,3.60535167
98.00,4.167,283.250,78.206,95.388,5209.584,779.050,0.9745,77.0,-0.030,69.3,0.531,34.1,109.3,112,76.3,5.42,4.35,5.86,535.105,2243.40,12.05,0.029,0.0474,36.0193,6.45,4.91,37.1,32.9,0.818,257,210,133,1.17,1.392,0.0425,0.0425,1.009,1033,1033,15,1,116,36.1,114.4,111.6,37.9,39.0,114,38.0,111,39.1,89.6,39.4,37.5,44.4,4.15,4.15,4.93,-3.36,0.032350,1.03861253,0.204343,3.61492904
99.00,4.167,287.417,78.304,95.395,5205.459,778.426,0.9746,76.9,0.206,69.1,0.531,34.1,90.0,112,76.5,5.41,4.26,5.85,535.105,2242.89,12.05,0.029,0.0474,36.0193,6.45,4.92,37.1,32.9,0.818,256,210,97,0.95,0.726,0.0425,0.0425,1.011,1033,1033,15,1,116,36.1,113.0,110.3,38.9,39.9,113,39.1,110,40.1,89.6,39.3,37.5,44.4,4.16,4.16,3.91,-2.41,0.032351,1.04144933,0.204420,3.62450896
100.00,4.167,291.583,78.449,95.084,5201.337,777.803,0.9746,76.9,0.016,68.8,0.530,34.1,78.3,112,76.3,5.40,4.23,5.83,535.055,2484.51,12.05,0.029,0.0474,36.0112,6.45,6.82,37.1,32.9,0.816,253,207,74,0.83,0.290,0.0425,0.0425,1.009,1033,1033,15,1,159,0.9,115.3,112.6,37.0,38.0,113,38.6,111,39.6,89.6,39.3,37.5,44.4,4.16,4.16,3.31,-3.00,0.032352,1.04428539,0.204517,3.63408964
101.00,4.167,295.750,78.506,94.904,5197.213,777.179,0.9745,77.0,-0.036,68.8,0.530,34.1,111.2,112,76.1,5.40,4.32,5.83,535.055,2776.77,12.05,0.029,0.0474,36.0112,6.45,7.65,37.1,32.9,0.817,256,209,136,1.20,1.432,0.0425,0.0425,1.007,1033,1033,15,1,160,0.3,119.0,116.3,34.1,35.2,117,35.9,114,37.2,89.6,39.4,37.5,44.4,4.16,4.16,4.96,-3.98,0.032353,1.04712023,0.204594,3.64367356
102.00,4.167,299.917,78.561,94.746,5193.089,776.555,0.9745,76.9,0.161,68.7,0.530,34.1,92.3,111,76.0,5.39,4.27,5.82,535.055,2520.36,12.05,0.029,0.0474,36.0112,6.45,5.59,37.1,32.9,0.818,257,210,101,0.98,0.799,0.0425,0.0425,1.006,1034,1034,15,1,126,27.7,116.1,113.4,36.6,37.7,116,37.0,113,38.1,89.5,39.4,37.5,44.4,4.16,4.16,4.09,-2.90,0.032356,1.04995676,0.204669,3.65326182
103.00,4.167,304.083,78.678,94.526,5188.967,775.932,0.9745,76.9,0.033,68.5,0.530,34.1,76.8,111,75.8,5.39,4.20,5.80,535.055,2243.32,12.05,0.029,0.0474,36.0112,6.45,4.92,37.1,32.9,0.816,256,209,73,0.80,0.262,0.0425,0.0425,1.005,1033,1033,15,1,116,36.0,114.4,111.6,37.9,39.0,114,38.0,111,39.1,89.6,39.4,37.5,44.4,4.16,4.16,3.28,-2.12,0.032358,1.05279148,0.204764,3.66284992
104.00,4.167,308.250,78.745,94.458,5184.844,775.308,0.9746,76.9,-0.079,68.3,0.530,34.1,110.6,111,75.7,5.38,4.29,5.79,535.055,2242.89,12.05,0.029,0.0474,36.0112,6.45,4.92,37.1,32.9,0.816,255,208,135,1.19,1.396,0.0425,0.0425,1.006,1033,1033,15,1,116,36.0,113.1,110.4,38.9,39.9,113,39.1,110,40.1,89.6,39.3,37.4,44.4,4.16,4.16,4.66,-3.04,0.032359,1.05562366,0.204850,3.67243831
105.00,4.167,312.417,78.820,94.419,5180.720,774.685,0.9746,76.9,0.098,68.2,0.530,34.1,95.1,111,75.7,5.38,4.28,5.79,534.975,2493.58,12.05,0.029,0.0474,35.9903,6.45,6.86,37.1,32.9,0.818,257,210,107,1.00,0.893,0.0425,0.0425,1.006,1033,1033,15,1,159,0.8,115.4,112.7,36.9,37.9,113,38.5,111,39.6,89.6,39.3,37.4,44.4,4.17,4.17,4.36,-3.75,0.032359,1.05845746,0.204924,3.68202866
106.00,4.167,316.583,78.995,94.403,5176.598,774.061,0.9745,76.9,-0.032,68.1,0.529,34.1,79.2,111,75.7,5.38,4.17,5.78,534.975,2777.32,12.05,0.029,0.0474,35.9903,6.45,7.64,37.1,32.9,0.816,256,209,77,0.82,0.339,0.0425,0.0425,1.006,1033,1033,15,1,160,0.3,119.0,116.3,34.1,35.2,117,35.9,114,37.2,89.6,39.4,37.4,44.4,4.17,4.17,3.43,-2.66,0.032361,1.06129015,0.205018,3.69161618
107.00,4.167,320.750,79.093,94.410,5172.476,773.438,0.9744,76.9,0.668,68.0,0.529,34.1,108.6,111,75.8,5.38,4.26,5.77,534.975,2510.71,12.05,0.029,0.0474,35.9903,6.45,5.53,37.1,32.9,0.816,255,208,131,1.17,1.313,0.0425,0.0425,1.006,1034,1034,15,1,126,28.2,116.2,113.4,36.6,37.7,116,36.9,113,38.1,89.5,39.4,37.4,44.4,4.17,4.17,4.49,-3.31,0.032364,1.06412025,0.205112,3.70120120
108.00,4.167,324.917,79.197,94.420,5168.351,772.814,0.9745,76.9,0.065,67.9,0.529,34.1,98.2,111,75.8,5.38,4.29,5.77,534.975,2243.25,12.05,0.029,0.0474,35.9903,6.45,4.92,37.1,32.8,0.817,258,211,113,1.03,1.000,0.0425,0.0425,1.006,1033,1033,15,1,116,36.0,114.4,111.6,37.9,39.0,114,38.1,111,39.1,89.5,39.4,37.4,44.4,4.17,4.17,4.43,-2.92,0.032366,1.06695215,0.205186,3.71078661
109.00,4.167,329.083,79.307,94.415,5164.229,772.191,0.9745,76.9,-0.036,67.8,0.528,34.1,81.6,111,75.8,5.37,4.17,5.76,534.975,2242.89,12.05,0.029,0.0474,35.9903,6.45,4.92,37.1,32.8,0.817,257,210,82,0.85,0.424,0.0425,0.0425,1.007,1033,1033,15,1,116,36.0,113.1,110.4,38.9,39.9,113,39.1,110,40.1,89.6,39.3,37.4,44.4,4.17,4.17,3.50,-2.13,0.032367,1.06978398,0.205279,3.72036850
110.00,4.167,333.250,79.540,94.449,5160.107,771.567,0.9745,76.9,-0.016,67.6,0.528,34.1,104.4,111,75.9,5.38,4.23,5.75,534.904,2502.59,12.05,0.029,0.0474,35.9881,6.44,6.90,37.1,32.8,0.815,254,207,123,1.13,1.150,0.0425,0.0425,1.006,1033,1033,15,1,159,0.7,115.6,113.0,36.7,37.8,114,38.3,111,39.4,89.6,39.3,37.3,44.4,4.17,4.17,4.18,-3.74,0.032368,1.07261343,0.205379,3.72994692
111.00,4.167,337.417,79.661,94.465,5155.982,770.944,0.9745,76.9,0.021,67.6,0.528,34.1,101.4,111,75.9,5.38,4.30,5.75,534.904,2777.59,12.05,0.029,0.0474,35.9881,6.44,7.62,37.1,32.8,0.817,258,211,119,1.07,1.111,0.0425,0.0425,1.006,1033,1033,15,1,160,0.3,119.1,116.3,34.1,35.3,117,35.9,114,37.2,89.5,39.4,37.3,44.4,4.17,4.17,4.68,-3.60,0.032369,1.07544423,0.205455,3.73952535
112.00,4.167,341.583,79.785,94.474,5151.860,770.320,0.9744,76.9,0.009,67.5,0.527,34.1,84.2,111,76.0,5.38,4.16,5.74,534.904,2500.99,12.05,0.029,0.0474,35.9881,6.44,5.48,37.1,32.8,0.817,257,210,87,0.87,0.513,0.0425,0.0425,1.006,1034,1034,15,1,125,28.8,116.2,113.4,36.6,37.7,116,37.0,113,38.1,89.5,39.4,37.3,44.4,4.18,4.18,3.65,-2.56,0.032373,1.07827583,0.205547,3.74910125
113.00,4.167,345.750,80.036,94.479,5147.738,769.697,0.9745,76.9,-0.082,67.3,0.527,34.1,98.0,111,76.0,5.39,4.19,5.74,534.904,2243.19,12.05,0.029,0.0474,35.9881,6.44,4.92,37.1,32.8,0.814,253,206,111,1.06,0.916,0.0425,0.0425,1.005,1033,1033,15,1,116,36.0,114.5,111.7,37.9,39.0,114,38.0,112,39.1,89.5,39.3,37.3,44.4,4.18,4.18,3.72,-2.54,0.032376,1.08110531,0.205652,3.75867384
114.00,4.167,349.917,80.163,94.903,5143.613,769.073,0.9745,76.9,0.006,67.0,0.525,34.1,103.0,111,76.0,5.37,4.28,5.72,534.904,2242.89,12.05,0.029,0.0474,35.9881,6.44,4.92,37.1,32.8,0.817,258,211,122,1.08,1.168,0.0425,0.0425,1.013,1033,1033,15,1,116,36.0,113.1,110.4,38.9,39.9,113,39.1,110,40.2,89.6,39.3,37.3,44.4,4.18,4.18,4.67,-2.91,0.032376,1.08393654,0.205726,3.76824731
115.00,4.167,354.083,80.280,95.308,5139.490,768.450,0.9745,76.9,0.009,66.5,0.522,34.1,84.2,111,76.9,5.34,4.14,5.71,534.811,2502.51,12.00,0.029,0.0473,35.9560,6.42,6.90,37.1,32.8,0.816,258,210,87,0.87,0.514,0.0425,0.0425,1.024,1033,1033,15,1,159,0.7,115.6,112.9,36.7,37.8,114,38.4,111,39.5,89.6,39.3,37.3,44.4,4.18,4.18,3.73,-3.31,0.032377,1.08677121,0.205815,3.77782140
116.00,4.167,358.250,80.453,95.205,5135.369,767.827,0.9744,76.9,-0.016,66.2,0.521,34.1,105.1,111,77.1,5.32,4.19,5.69,534.811,2777.47,12.00,0.029,0.0473,35.9560,6.42,7.62,37.1,32.8,0.815,255,207,125,1.13,1.178,0.0426,0.0426,1.026,1033,1033,15,1,160,0.3,119.1,116.4,34.1,35.2,117,35.9,114,37.1,89.5,39.4,37.2,44.4,4.18,4.18,4.22,-3.34,0.032380,1.08960507,0.205914,3.78739631
117.00,4.167,362.417,80.515,95.025,5131.245,767.203,0.9744,76.9,0.034,66.1,0.521,34.1,99.2,111,77.0,5.32,4.24,5.68,534.811,2501.07,12.00,0.029,0.0473,35.9560,6.42,5.48,37.1,32.8,0.817,259,211,115,1.04,1.036,0.0426,0.0426,1.024,1034,1034,15,1,125,28.7,116.1,113.4,36.6,37.7,116,37.0,113,38.1,89.5,39.4,37.2,44.4,4.18,4.18,4.50,-3.18,0.032382,1.09244104,0.205986,3.79697694
118.00,4.167,366.583,80.568,94.842,5127.123,766.580,0.9744,76.8,-0.036,66.0,0.521,34.1,81.1,111,76.8,5.32,4.11,5.67,534.811,2243.19,12.00,0.029,0.0473,35.9560,6.42,4.92,37.1,32.8,0.816,258,210,81,0.84,0.403,0.0426,0.0426,1.023,1033,1033,15,1,116,36.0,114.4,111.7,37.9,39.0,114,38.1,111,39.1,89.5,39.4,37.2,44.4,4.18,4.18,3.49,-2.26,0.032385,1.09527715,0.206079,3.80655986
119.00,4.167,370.750,80.667,94.544,5123.002,765.956,0.9745,76.9,0.668,65.8,0.521,34.1,108.5,111,76.5,5.31,4.19,5.66,534.811,2242.89,12.00,0.029,0.0473,35.9560,6.42,4.92,37.1,32.8,0.815,256,209,132,1.17,1.303,0.0426,0.0426,1.021,1033,1033,15,1,116,36.0,113.1,110.4,38.9,39.9,113,39.1,110,40.1,89.5,39.3,37.2,44.4,4.19,4.19,4.44,-2.88,0.032386,1.09811025,0.206175,3.81614445
120.00,4.167,374.917,80.721,94.448,5118.879,765.333,0.9745,76.9,0.086,65.7,0.521,34.1,95.7,110,76.4,5.31,4.20,5.65,534.698,2502.45,12.00,0.029,0.0473,35.9723,6.42,6.90,37.1,32.8,0.817,259,212,109,1.00,0.908,0.0426,0.0426,1.021,1033,1033,15,1,159,0.7,115.6,112.9,36.8,37.8,114,38.4,111,39.5,89.5,39.3,37.2,44.4,4.19,4.19,4.41,-3.78,0.032387,1.10094468,0.206250,3.82573333
121.00,4.167,379.083,80.847,94.344,5114.759,764.709,0.9744,76.8,0.008,65.6,0.521,34.1,78.6,110,76.3,5.30,4.10,5.64,534.698,2777.38,12.00,0.029,0.0473,35.9723,6.42,7.62,37.1,32.8,0.816,258,210,77,0.81,0.312,0.0426,0.0426,1.021,1033,1033,15,1,160,0.3,119.1,116.4,34.1,35.3,117,35.9,114,37.2,89.4,39.4,37.2,44.4,4.19,4.19,3.40,-2.58,0.032389,1.10377794,0.206348,3.83532127
122.00,4.167,383.250,80.921,94.320,5110.637,764.086,0.9743,76.9,-0.065,65.5,0.520,34.1,110.0,110,76.3,5.30,4.19,5.63,534.698,2501.13,12.00,0.029,0.0473,35.9723,6.42,5.48,37.1,32.8,0.816,257,210,135,1.17,1.365,0.0426,0.0426,1.021,1034,1034,15,1,125,28.7,116.2,113.4,36.6,37.7,116,37.0,113,38.1,89.4,39.4,37.1,44.4,4.19,4.19,4.78,-3.50,0.032392,1.10660848,0.206440,3.84490845
123.00,4.167,387.417,81.003,94.309,5106.514,763.463,0.9744,76.8,0.158,65.4,0.520,34.1,92.7,110,76.4,5.30,4.16,5.63,534.698,2243.19,12.00,0.029,0.0473,35.9723,6.42,4.92,37.1,32.8,0.817,259,212,104,0.97,0.801,0.0426,0.0426,1.021,1033,1033,15,1,116,36.0,114.4,111.7,38.0,39.0,114,38.1,111,39.2,89.4,39.4,37.1,44.4,4.19,4.19,4.11,-2.69,0.032395,1.10944097,0.206520,3.85449691
124.00,4.167,391.583,81.186,94.300,5102.394,762.839,0.9744,76.8,0.058,65.2,0.520,34.1,76.4,110,76.4,5.29,4.10,5.62,534.698,2242.89,12.00,0.029,0.0473,35.9723,6.42,4.92,37.1,32.8,0.815,258,211,73,0.78,0.238,0.0426,0.0426,1.022,1033,1033,15,1,116,36.0,113.1,110.4,38.9,39.9,113,39.1,110,40.1,89.4,39.3,37.1,44.4,4.19,4.19,3.24,-1.95,0.032397,1.11227208,0.206623,3.86408194
125.00,4.167,395.750,81.287,94.314,5098.272,762.216,0.9744,76.9,-0.031,65.1,0.519,34.1,109.9,110,76.4,5.29,4.19,5.61,534.607,2502.39,12.00,0.029,0.0473,35.9830,6.42,6.90,37.1,32.8,0.816,258,211,136,1.16,1.372,0.0426,0.0426,1.022,1033,1033,15,1,159,0.7,115.6,113.0,36.7,37.8,114,38.4,111,39.5,89.4,39.3,37.1,44.4,4.20,4.20,4.98,-4.25,0.032398,1.11510146,0.206711,3.87366516
126.00,4.167,399.917,81.393,94.331,5094.150,761.592,0.9743,76.8,0.214,65.1,0.519,34.1,90.0,110,76.5,5.29,4.12,5.61,534.607,2777.29,12.00,0.029,0.0473,35.9830,6.42,7.62,37.1,32.8,0.816,259,212,99,0.93,0.706,0.0426,0.0426,1.022,1033,1033,15,1,160,0.3,119.1,116.3,34.1,35.3,117,36.0,114,37.2,89.4,39.4,37.1,44.4,4.20,4.20,3.99,-3.05,0.032400,1.11793304,0.206797,3.88324810
127.00,4.167,404.083,81.616,94.352,5090.030,760.969,0.9743,76.8,-0.051,64.9,0.519,34.1,82.7,110,76.5,5.30,4.10,5.60,534.607,2501.19,12.00,0.029,0.0473,35.9830,6.42,5.48,37.1,32.8,0.814,255,208,84,0.87,0.402,0.0426,0.0426,1.022,1034,1034,15,1,125,28.7,116.2,113.4,36.6,37.7,116,36.9,113,38.1,89.3,39.4,37.0,44.4,4.20,4.20,3.30,-2.33,0.032404,1.12076296,0.206904,3.89282704
128.00,4.167,408.250,81.732,94.358,5085.907,760.346,0.9743,76.9,-0.022,64.8,0.518,34.1,106.9,110,76.5,5.30,4.19,5.60,534.607,2243.19,12.00,0.029,0.0473,35.9830,6.42,4.92,37.1,32.8,0.816,260,212,131,1.12,1.285,0.0426,0.0426,1.022,1033,1033,15,1,116,36.0,114.4,111.7,37.9,39.0,114,38.1,112,39.2,89.3,39.3,37.0,44.4,4.20,4.20,4.91,-3.31,0.032407,1.12359224,0.206989,3.90240487
129.00,4.167,412.417,81.850,94.350,5081.785,759.722,0.9744,76.8,0.150,64.7,0.518,34.1,87.4,110,76.6,5.30,4.09,5.59,534.607,2242.89,12.00,0.029,0.0473,35.9830,6.42,4.92,37.1,32.8,0.816,260,212,94,0.90,0.613,0.0426,0.0426,1.022,1033,1033,15,1,116,36.0,113.1,110.4,39.0,40.0,113,39.2,110,40.2,89.4,39.3,37.0,44.4,4.20,4.20,3.79,-2.31,0.032409,1.12642360,0.207080,3.91198190
130.00,4.167,416.583,82.091,94.353,5077.665,759.099,0.9744,76.8,-0.073,64.6,0.518,34.1,92.7,110,76.6,5.31,4.10,5.58,534.517,2502.33,12.00,0.029,0.0473,35.9752,6.41,6.90,37.1,32.8,0.813,255,207,102,0.99,0.725,0.0426,0.0426,1.020,1033,1033,15,1,159,0.7,115.7,113.0,36.7,37.8,114,38.4,111,39.4,89.4,39.3,37.0,44.4,4.20,4.20,3.64,-3.29,0.032411,1.12925293,0.207190,3.92155535
131.00,4.167,420.750,82.214,94.357,5073.542,758.475,0.9743,76.9,0.001,64.6,0.518,34.1,103.0,110,76.6,5.31,4.19,5.58,534.517,2777.20,12.00,0.029,0.0473,35.9752,6.41,7.62,37.1,32.8,0.816,260,213,124,1.07,1.157,0.0426,0.0426,1.020,1033,1033,15,1,160,0.3,119.1,116.3,34.1,35.3,117,35.9,114,37.2,89.3,39.4,37.0,44.4,4.20,4.20,4.80,-3.68,0.032413,1.13208263,0.207272,3.93112894
132.00,4.167,424.917,82.337,94.713,5069.421,757.852,0.9742,76.8,-0.025,64.1,0.514,34.1,83.5,110,76.6,5.28,4.04,5.57,534.517,2501.25,12.00,0.029,0.0473,35.9752,6.41,5.48,37.1,32.8,0.815,260,212,87,0.86,0.478,0.0426,0.0426,1.030,1034,1034,15,1,125,28.7,116.2,113.4,36.6,37.7,116,37.0,113,38.1,89.3,39.4,37.0,44.4,4.20,4.20,3.60,-2.51,0.032416,1.13491488,0.207367,3.94070207
133.00,4.167,429.083,82.550,95.124,5065.300,757.229,0.9743,76.9,0.668,63.4,0.511,34.1,108.9,111,77.6,5.24,4.12,5.55,534.517,2243.19,12.00,0.029,0.0473,35.9752,6.41,4.92,37.1,32.8,0.815,258,210,133,1.16,1.317,0.0426,0.0426,1.043,1033,1033,15,1,116,36.0,114.5,111.7,37.9,39.0,114,38.0,112,39.1,89.3,39.3,36.9,44.4,4.21,4.21,4.51,-3.09,0.032420,1.13774675,0.207467,3.95027489
134.00,4.167,433.250,82.631,95.014,5061.177,756.606,0.9743,76.8,0.145,63.3,0.511,34.1,93.8,111,77.6,5.23,4.10,5.54,534.517,2242.89,12.00,0.029,0.0473,35.9752,6.41,4.92,37.1,32.8,0.816,261,213,106,0.97,0.839,0.0426,0.0426,1.043,1033,1033,15,1,116,36.0,113.1,110.4,39.0,40.0,113,39.2,110,40.2,89.3,39.3,36.9,44.4,4.21,4.21,4.14,-2.54,0.032421,1.14058216,0.207547,3.95985255
135.00,4.167,437.417,82.759,94.692,5057.058,755.982,0.9743,76.8,-0.005,63.1,0.511,34.1,79.3,110,77.4,5.23,4.05,5.52,534.428,2502.27,12.00,0.029,0.0473,35.9663,6.41,6.90,37.1,32.8,0.814,258,210,78,0.82,0.307,0.0427,0.0427,1.040,1033,1033,15,1,159,0.7,115.6,113.0,36.7,37.8,114,38.4,111,39.5,89.3,39.3,36.9,44.4,4.21,4.21,3.37,-3.03,0.032423,1.14341696,0.207651,3.96943131
136.00,4.167,441.583,82.815,94.549,5052.936,755.359,0.9742,76.9,-0.022,63.1,0.510,34.1,105.9,110,77.2,5.22,4.15,5.52,534.428,2777.11,12.00,0.029,0.0473,35.9663,6.41,7.62,37.1,32.8,0.816,261,213,129,1.11,1.250,0.0427,0.0427,1.039,1033,1033,15,1,160,0.3,119.1,116.3,34.1,35.3,117,35.9,114,37.2,89.2,39.4,36.9,44.4,4.21,4.21,4.96,-3.82,0.032425,1.14625031,0.207736,3.97901354
137.00,4.167,445.750,82.871,94.428,5048.815,754.736,0.9742,76.8,0.081,63.0,0.510,34.1,85.2,110,77.1,5.22,4.04,5.51,534.428,2501.31,12.00,0.029,0.0473,35.9663,6.41,5.48,37.1,32.8,0.815,261,213,90,0.88,0.535,0.0427,0.0427,1.039,1034,1034,15,1,125,28.7,116.1,113.4,36.6,37.7,116,37.0,113,38.2,89.2,39.4,36.9,44.4,4.21,4.21,3.72,-2.60,0.032429,1.14908499,0.207827,3.98859888
138.00,4.167,449.917,82.994,94.265,5044.697,754.112,0.9742,76.8,0.071,62.8,0.510,34.1,104.1,110,77.0,5.21,4.08,5.50,534.428,2243.19,12.00,0.029,0.0473,35.9663,6.41,4.92,37.1,32.8,0.814,257,209,124,1.11,1.130,0.0427,0.0427,1.038,1033,1033,15,1,116,36.0,114.5,111.7,37.9,39.0,114,38.0,112,39.1,89.2,39.4,36.8,44.4,4.21,4.21,4.18,-2.85,0.032432,1.15191647,0.207933,3.99818361
139.00,4.167,454.083,83.065,94.212,5040.575,753.489,0.9743,76.8,0.073,62.7,0.510,34.1,96.1,110,76.9,5.21,4.11,5.49,534.428,2242.89,12.00,0.029,0.0473,35.9663,6.41,4.92,37.1,32.8,0.816,262,213,111,1.00,0.911,0.0427,0.0427,1.038,1033,1033,15,1,116,36.0,113.1,110.4,39.0,40.0,113,39.2,110,40.2,89.2,39.3,36.8,44.4,4.22,4.22,4.31,-2.65,0.032433,1.15474889,0.208013,4.00777101
140.00,4.167,458.250,83.226,94.167,5036.456,752.866,0.9743,76.8,0.050,62.5,0.509,34.1,78.0,110,76.9,5.20,4.01,5.48,534.337,2502.21,12.00,0.029,0.0473,35.9664,6.41,6.90,37.1,32.8,0.815,261,213,77,0.80,0.285,0.0427,0.0427,1.039,1033,1033,15,1,159,0.7,115.6,112.9,36.7,37.8,114,38.4,111,39.5,89.2,39.3,36.8,44.4,4.22,4.22,3.44,-3.05,0.032436,1.15758053,0.208117,4.01735635
141.00,4.167,462.417,83.317,94.167,5032.335,752.242,0.9741,76.9,-0.031,62.5,0.509,34.1,109.0,110,76.9,5.20,4.11,5.47,534.337,2777.02,12.00,0.029,0.0473,35.9664,6.41,7.62,37.1,32.8,0.815,261,213,135,1.14,1.335,0.0427,0.0427,1.039,1033,1033,15,1,160,0.3,119.1,116.3,34.1,35.3,117,35.9,114,37.2,89.1,39.4,36.8,44.5,4.22,4.22,4.97,-3.87,0.032438,1.16040990,0.208210,4.02694036
142.00,4.167,466.583,83.414,94.172,5028.214,751.619,0.9741,76.8,0.157,62.4,0.509,34.1,87.8,110,77.0,5.20,4.03,5.47,534.337,2501.36,12.00,0.029,0.0473,35.9664,6.41,5.48,37.1,32.8,0.815,262,214,95,0.90,0.620,0.0427,0.0427,1.039,1034,1034,15,1,125,28.7,116.1,113.4,36.6,37.7,116,37.0,113,38.2,89.1,39.4,36.8,44.5,4.22,4.22,3.86,-2.70,0.032441,1.16324133,0.208301,4.03652442
143.00,4.167,470.750,83.623,94.188,5024.096,750.996,0.9741,76.8,-0.090,62.2,0.508,34.1,97.3,110,77.0,5.20,4.04,5.46,534.337,2243.20,12.00,0.029,0.0473,35.9664,6.41,4.92,37.1,32.8,0.813,257,209,112,1.03,0.881,0.0427,0.0427,1.039,1033,1033,15,1,116,36.0,114.5,111.7,37.9,39.0,114,38.0,112,39.1,89.1,39.4,36.7,44.5,4.22,4.22,3.79,-2.56,0.032445,1.16607048,0.208412,4.04610459
144.00,4.167,474.917,83.734,94.191,5019.974,750.372,0.9742,76.8,0.043,62.2,0.508,34.1,99.2,110,77.0,5.21,4.11,5.46,534.337,2242.89,12.00,0.029,0.0473,35.9664,6.41,4.92,37.1,32.8,0.816,263,214,117,1.02,1.015,0.0427,0.0427,1.039,1033,1033,15,1,116,36.0,113.1,110.4,39.0,40.0,113,39.2,110,40.2,89.1,39.3,36.7,44.5,4.22,4.22,4.51,-2.78,0.032447,1.16890036,0.208495,4.05568483
145.00,4.167,479.083,83.966,94.203,5015.854,749.749,0.9742,76.8,-0.032,62.0,0.508,34.1,80.5,109,77.1,5.21,3.97,5.45,534.253,2502.16,12.00,0.029,0.0473,35.9639,6.41,6.90,37.1,32.8,0.815,262,213,82,0.82,0.367,0.0427,0.0427,1.039,1033,1033,15,1,159,0.7,115.6,112.9,36.7,37.8,114,38.4,111,39.5,89.1,39.3,36.7,44.5,4.22,4.22,3.56,-3.13,0.032449,1.17173085,0.208599,4.06526237
146.00,4.167,483.250,84.086,94.213,5011.734,749.126,0.9741,76.8,-0.035,62.0,0.508,34.1,109.4,109,77.1,5.21,4.07,5.45,534.253,2776.94,12.00,0.029,0.0473,35.9639,6.41,7.62,37.1,32.8,0.815,261,212,136,1.15,1.333,0.0427,0.0427,1.038,1033,1033,15,1,160,0.3,119.1,116.3,34.1,35.2,117,35.9,114,37.2,89.0,39.4,36.7,44.5,4.23,4.23,4.84,-3.78,0.032452,1.17455902,0.208701,4.07483726
147.00,4.167,487.417,84.207,94.220,5007.613,748.503,0.9740,76.8,0.207,61.9,0.507,34.1,90.5,109,77.1,5.21,4.02,5.44,534.253,2501.42,12.00,0.029,0.0473,35.9639,6.41,5.48,37.1,32.8,0.815,263,214,101,0.93,0.714,0.0427,0.0427,1.038,1034,1034,15,1,125,28.7,116.1,113.4,36.6,37.7,116,37.0,113,38.2,89.0,39.4,36.7,44.5,4.23,4.23,4.01,-2.80,0.032455,1.17738963,0.208791,4.08441268
148.00,4.167,491.583,84.454,94.222,5003.495,747.879,0.9741,76.8,-0.067,61.8,0.507,34.1,88.0,109,77.2,5.22,4.00,5.44,534.253,2243.20,12.00,0.029,0.0473,35.9639,6.41,4.92,37.1,32.8,0.813,258,209,94,0.92,0.562,0.0427,0.0427,1.037,1033,1033,15,1,116,36.0,114.4,111.7,37.9,39.0,114,38.0,112,39.1,89.0,39.4,36.6,44.5,4.23,4.23,3.43,-2.27,0.032459,1.18021877,0.208905,4.09398462
149.00,4.167,495.750,84.578,94.215,4999.373,747.256,0.9741,76.8,0.003,61.7,0.507,34.1,102.0,109,77.2,5.22,4.09,5.43,534.253,2242.89,12.00,0.029,0.0473,35.9639,6.41,4.92,37.1,32.8,0.815,263,215,123,1.05,1.112,0.0427,0.0427,1.037,1033,1033,15,1,116,36.0,113.1,110.4,38.9,40.0,113,39.1,110,40.2,89.1,39.3,36.6,44.5,4.23,4.23,4.67,-2.90,0.032461,1.18304799,0.208992,4.10355669
150.00,4.167,499.917,84.818,95.100,4995.253,746.633,0.9741,76.8,-0.032,61.0,0.503,34.1,81.8,110,78.1,5.17,3.94,5.41,534.173,2502.10,12.00,0.029,0.0473,35.9576,6.41,6.89,37.1,32.8,0.814,263,214,85,0.83,0.414,0.0428,0.0428,1.056,1033,1033,15,1,159,0.7,115.6,112.9,36.7,37.8,114,38.4,111,39.5,89.0,39.3,36.6,44.5,4.23,4.23,3.60,-3.15,0.032463,1.18588005,0.209093,4.11312868
151.00,4.167,504.083,84.912,95.148,4991.133,746.010,0.9740,76.8,-0.041,60.8,0.502,34.1,109.9,110,78.4,5.16,4.05,5.40,534.173,2776.86,12.00,0.029,0.0473,35.9576,6.41,7.62,37.1,32.8,0.815,262,214,137,1.15,1.364,0.0428,0.0428,1.060,1033,1033,15,1,160,0.3,119.0,116.3,34.1,35.3,117,35.9,114,37.2,89.0,39.4,36.6,44.5,4.23,4.23,4.95,-3.85,0.032466,1.18871239,0.209190,4.12270178
152.00,4.167,508.250,84.986,95.034,4987.012,745.386,0.9740,76.8,0.157,60.6,0.501,34.1,87.7,110,78.4,5.15,3.96,5.39,534.173,2501.47,12.00,0.029,0.0473,35.9576,6.41,5.48,37.1,32.8,0.815,264,215,95,0.90,0.615,0.0428,0.0428,1.060,1034,1034,15,1,125,28.7,116.1,113.4,36.6,37.7,116,37.0,113,38.2,88.9,39.4,36.6,44.5,4.23,4.23,3.84,-2.67,0.032469,1.19154873,0.209280,4.13228020
153.00,4.167,512.417,85.092,94.675,4982.894,744.763,0.9740,76.8,0.145,60.5,0.501,34.1,104.4,110,78.1,5.15,4.00,5.37,534.173,2243.20,12.00,0.029,0.0473,35.9576,6.41,4.92,37.1,32.8,0.813,260,211,126,1.10,1.134,0.0428,0.0428,1.057,1033,1033,15,1,116,36.0,114.4,111.7,37.9,39.0,114,38.0,111,39.1,88.9,39.4,36.5,44.5,4.24,4.24,4.23,-2.88,0.032473,1.19438316,0.209387,4.14186073
154.00,4.167,516.583,85.134,94.502,4978.773,744.140,0.9740,76.8,0.129,60.4,0.501,34.1,94.0,109,77.9,5.14,4.00,5.37,534.173,2242.89,12.00,0.029,0.0473,35.9576,6.41,4.92,37.1,32.8,0.815,264,215,107,0.97,0.832,0.0428,0.0428,1.056,1033,1033,15,1,116,36.0,113.0,110.3,39.0,40.0,113,39.2,110,40.2,89.0,39.3,36.5,44.5,4.24,4.24,4.19,-2.56,0.032475,1.19721880,0.209470,4.15144752
155.00,4.167,520.750,85.218,94.249,4974.656,743.517,0.9740,76.8,-0.049,60.3,0.501,34.1,83.6,109,77.7,5.14,3.96,5.35,534.097,2502.06,12.00,0.029,0.0473,35.9634,6.41,6.89,37.1,32.8,0.813,259,211,86,0.87,0.421,0.0428,0.0428,1.055,1033,1033,15,1,159,0.7,115.6,112.9,36.7,37.8,114,38.4,111,39.5,88.9,39.3,36.5,44.5,4.24,4.24,3.46,-3.07,0.032477,1.20005283,0.209579,4.16103551
156.00,4.167,524.917,85.266,94.171,4970.536,742.893,0.9739,76.8,0.003,60.2,0.501,34.1,101.3,109,77.6,5.13,4.06,5.35,534.097,2776.79,12.00,0.029,0.0473,35.9634,6.41,7.62,37.1,32.8,0.815,264,216,121,1.05,1.080,0.0428,0.0428,1.054,1033,1033,15,1,160,0.3,119.0,116.3,34.1,35.3,117,35.9,114,37.2,88.8,39.4,36.5,44.5,4.24,4.24,4.75,-3.60,0.032479,1.20288535,0.209664,4.17062652
157.00,4.167,529.083,85.382,94.076,4966.418,742.270,0.9739,76.8,-0.032,60.0,0.501,34.1,80.9,109,77.5,5.12,3.91,5.33,534.097,2501.51,12.00,0.029,0.0473,35.9634,6.41,5.48,37.1,32.8,0.814,264,215,83,0.82,0.374,0.0428,0.0428,1.055,1034,1034,15,1,125,28.7,116.1,113.3,36.6,37.7,116,37.0,113,38.2,88.8,39.4,36.5,44.5,4.24,4.24,3.51,-2.42,0.032483,1.20571836,0.209766,4.18021828
158.00,4.167,533.250,85.450,94.053,4962.299,741.647,0.9739,76.8,-0.041,59.9,0.500,34.1,108.7,109,77.5,5.12,4.02,5.33,534.097,2243.20,12.00,0.029,0.0473,35.9634,6.41,4.92,37.1,32.8,0.814,263,214,135,1.13,1.310,0.0428,0.0428,1.055,1033,1033,15,1,116,36.0,114.4,111.6,37.9,39.0,114,38.0,111,39.2,88.8,39.4,36.4,44.5,4.24,4.24,4.87,-3.29,0.032486,1.20854843,0.209865,4.18980893
159.00,4.167,537.417,85.526,94.032,4958.180,741.024,0.9739,76.7,0.157,59.8,0.500,34.1,87.0,109,77.5,5.12,3.93,5.32,534.097,2242.89,12.00,0.029,0.0473,35.9634,6.41,4.92,37.1,32.8,0.814,265,216,95,0.89,0.584,0.0428,0.0428,1.056,1033,1033,15,1,116,36.0,113.0,110.3,39.0,40.0,113,39.2,110,40.2,88.8,39.3,36.4,44.5,4.24,4.24,3.81,-2.31,0.032488,1.21138041,0.209958,4.19940042
160.00,4.167,541.583,85.698,94.031,4954.063,740.401,0.9739,76.8,0.145,59.7,0.500,34.1,103.7,109,77.6,5.12,3.97,5.32,534.026,2502.02,12.00,0.029,0.0473,35.9725,6.41,6.89,37.1,32.8,0.813,261,212,125,1.09,1.105,0.0428,0.0428,1.056,1033,1033,15,1,159,0.7,115.5,112.9,36.7,37.8,114,38.4,111,39.5,88.8,39.3,36.4,44.5,4.25,4.25,4.32,-3.73,0.032490,1.21420966,0.210069,4.20898836
161.00,4.167,545.750,85.792,94.042,4949.943,739.778,0.9738,76.8,0.161,59.6,0.500,34.1,93.8,109,77.6,5.12,3.97,5.31,534.026,2776.73,12.00,0.029,0.0473,35.9725,6.41,7.62,37.1,32.8,0.815,265,216,108,0.96,0.818,0.0428,0.0428,1.056,1033,1033,15,1,160,0.3,118.9,116.2,34.1,35.3,117,35.9,114,37.2,88.7,39.4,36.4,44.5,4.25,4.25,4.24,-3.20,0.032493,1.21704021,0.210155,4.21857679
162.00,4.167,549.917,85.996,94.062,4945.826,739.154,0.9738,76.7,-0.048,59.5,0.499,34.1,83.5,109,77.6,5.12,3.92,5.30,534.026,2501.55,12.00,0.029,0.0473,35.9725,6.41,5.48,37.1,32.8,0.812,261,212,87,0.86,0.416,0.0429,0.0429,1.056,1034,1034,15,1,125,28.7,116.1,113.3,36.6,37.7,116,36.9,113,38.1,88.7,39.4,36.4,44.5,4.25,4.25,3.38,-2.37,0.032498,1.21986983,0.210269,4.22816146
163.00,4.167,554.083,86.104,94.070,4941.706,738.531,0.9738,76.8,0.021,59.5,0.499,34.1,101.2,109,77.7,5.12,4.02,5.30,534.026,2243.20,12.00,0.029,0.0473,35.9725,6.41,4.92,37.1,32.8,0.815,266,216,122,1.04,1.074,0.0429,0.0429,1.056,1033,1033,15,1,116,36.0,114.3,111.5,37.9,39.0,114,38.1,111,39.2,88.7,39.4,36.3,44.5,4.25,4.25,4.70,-3.07,0.032501,1.22269887,0.210359,4.23774527
164.00,4.167,558.250,86.328,94.070,4937.588,737.908,0.9738,76.7,-0.032,59.3,0.498,34.1,81.1,109,77.7,5.12,3.88,5.29,534.026,2242.89,12.00,0.029,0.0473,35.9725,6.41,4.92,37.1,32.8,0.814,265,216,84,0.82,0.378,0.0429,0.0429,1.056,1033,1033,15,1,116,36.0,113.0,110.3,38.9,40.0,113,39.1,110,40.2,88.7,39.3,36.3,44.5,4.25,4.25,3.48,-2.09,0.032504,1.22552928,0.210465,4.24732715
165.00,4.167,562.417,86.443,94.076,4933.469,737.285,0.9738,76.8,-0.029,59.3,0.498,34.1,108.6,109,77.7,5.12,3.98,5.29,533.970,2501.99,12.00,0.029,0.0473,35.9771,6.41,6.89,37.1,32.8,0.814,264,215,136,1.12,1.305,0.0429,0.0429,1.056,1033,1033,15,1,159,0.7,115.5,112.8,36.7,37.8,113,38.4,111,39.5,88.7,39.4,36.3,44.5,4.25,4.25,4.97,-4.15,0.032505,1.22835741,0.210569,4.25690638
166.00,4.167,566.583,86.561,94.083,4929.350,736.662,0.9737,76.7,0.098,59.2,0.498,34.1,87.2,109,77.7,5.13,3.90,5.29,533.970,2776.69,12.00,0.029,0.0473,35.9771,6.41,7.62,37.1,32.8,0.814,266,217,96,0.88,0.587,0.0429,0.0429,1.055,1033,1033,15,1,160,0.3,118.9,116.2,34.1,35.3,117,35.9,114,37.2,88.6,39.4,36.3,44.5,4.25,4.25,3.86,-2.90,0.032508,1.23118795,0.210666,4.26648587
167.00,4.167,570.750,86.799,94.086,4925.233,736.039,0.9737,76.8,0.214,59.1,0.498,34.1,103.6,109,77.8,5.13,3.93,5.28,533.970,2501.58,12.00,0.029,0.0473,35.9771,6.41,5.48,37.1,32.8,0.812,262,213,126,1.08,1.100,0.0429,0.0429,1.054,1034,1034,15,1,125,28.7,116.1,113.3,36.6,37.7,116,36.9,113,38.1,88.6,39.4,36.2,44.5,4.26,4.26,4.28,-3.10,0.032513,1.23401624,0.210781,4.27606198
168.00,4.167,574.917,86.920,94.083,4921.113,735.415,0.9737,76.7,0.161,59.0,0.497,34.1,93.8,109,77.8,5.13,3.93,5.28,533.970,2243.20,12.00,0.029,0.0473,35.9771,6.41,4.92,37.1,32.8,0.814,267,217,108,0.95,0.816,0.0429,0.0429,1.054,1033,1033,15,1,116,36.0,114.3,111.5,37.9,39.0,114,38.1,111,39.2,88.6,39.4,36.2,44.5,4.26,4.26,4.20,-2.72,0.032516,1.23684623,0.210872,4.28563924
169.00,4.167,579.083,87.163,94.353,4916.996,734.792,0.9738,76.7,-0.067,58.4,0.493,34.1,89.4,109,77.8,5.09,3.89,5.26,533.970,2242.89,12.00,0.029,0.0473,35.9771,6.41,4.92,37.1,32.8,0.812,261,212,98,0.93,0.602,0.0429,0.0429,1.066,1033,1033,15,1,116,36.0,113.0,110.3,38.9,39.9,113,39.1,110,40.2,88.6,39.3,36.2,44.5,4.26,4.26,3.51,-2.17,0.032519,1.23967567,0.210988,4.29521375
170.00,4.167,583.250,87.279,94.704,4912.876,734.169,0.9737,76.7,0.059,58.0,0.490,34.1,97.9,109,78.5,5.06,3.95,5.25,533.926,2501.97,12.00,0.029,0.0473,35.9733,6.41,6.89,37.1,32.8,0.814,267,218,116,1.00,0.961,0.0429,0.0429,1.076,1033,1033,15,1,159,0.7,115.4,112.8,36.7,37.8,113,38.4,111,39.5,88.6,39.3,36.2,44.5,4.26,4.26,4.56,-3.78,0.032521,1.24250691,0.211077,4.30479038
171.00,4.167,587.417,87.469,94.698,4908.758,733.546,0.9737,76.7,-0.012,57.7,0.489,34.1,80.6,109,78.7,5.05,3.87,5.24,533.926,2776.65,12.00,0.029,0.0473,35.9733,6.41,7.62,37.1,32.8,0.812,264,214,82,0.82,0.338,0.0429,0.0429,1.079,1033,1033,15,1,160,0.3,118.9,116.2,34.1,35.3,117,35.9,114,37.2,88.6,39.4,36.1,44.5,4.26,4.26,3.38,-2.55,0.032524,1.24534021,0.211188,4.31436775
172.00,4.167,591.583,87.544,94.578,4904.639,732.923,0.9736,76.8,0.021,57.6,0.489,34.1,100.6,109,78.6,5.05,3.97,5.23,533.926,2501.60,12.00,0.029,0.0473,35.9733,6.41,5.48,37.1,32.8,0.814,267,218,121,1.03,1.051,0.0429,0.0429,1.078,1034,1034,15,1,125,28.7,116.0,113.2,36.6,37.8,116,37.0,113,38.2,88.5,39.4,36.1,44.5,4.26,4.26,4.67,-3.26,0.032528,1.24817349,0.211279,4.32394864
173.00,4.167,595.750,87.674,94.307,4900.522,732.300,0.9736,76.7,0.054,57.5,0.489,34.1,79.4,109,78.4,5.04,3.85,5.22,533.926,2243.20,12.00,0.029,0.0473,35.9733,6.41,4.92,37.1,32.8,0.813,267,217,81,0.80,0.318,0.0429,0.0429,1.076,1033,1033,15,1,116,36.0,114.2,111.5,37.9,39.0,114,38.0,111,39.2,88.5,39.4,36.1,44.5,4.26,4.26,3.41,-2.16,0.032532,1.25100800,0.211386,4.33353231
174.00,4.167,599.917,87.735,94.195,4896.404,731.677,0.9737,76.8,-0.020,57.4,0.489,34.1,103.3,109,78.3,5.04,3.96,5.21,533.926,2242.89,12.00,0.029,0.0473,35.9733,6.41,4.92,37.1,32.8,0.814,268,218,126,1.06,1.140,0.0430,0.0430,1.075,1033,1033,15,1,116,36.0,112.9,110.2,38.9,40.0,113,39.1,110,40.2,88.5,39.3,36.1,44.5,4.27,4.27,4.82,-2.99,0.032534,1.25384037,0.211483,4.34311843
175.00,4.167,604.083,87.862,94.033,4892.287,731.054,0.9737,76.7,-0.032,57.3,0.489,34.1,81.5,108,78.2,5.03,3.82,5.20,533.892,2501.94,12.00,0.029,0.0473,35.9708,6.41,6.89,37.1,32.8,0.813,268,218,85,0.82,0.386,0.0430,0.0430,1.075,1033,1033,15,1,159,0.7,115.4,112.7,36.7,37.8,113,38.4,111,39.5,88.5,39.3,36.1,44.5,4.27,4.27,3.63,-3.12,0.032536,1.25667386,0.211587,4.35270704
176.00,4.167,608.250,87.932,93.984,4888.170,730.431,0.9735,76.8,-0.033,57.2,0.488,34.1,106.4,108,78.1,5.03,3.94,5.19,533.892,2776.61,12.00,0.029,0.0473,35.9708,6.41,7.62,37.1,32.8,0.814,268,218,132,1.09,1.236,0.0430,0.0430,1.074,1033,1033,15,1,160,0.3,118.9,116.2,34.1,35.3,117,35.9,114,37.2,88.4,39.4,36.0,44.5,4.27,4.27,5.01,-3.83,0.032539,1.25950438,0.211688,4.36229570
177.00,4.167,612.417,88.007,93.948,4884.052,729.808,0.9735,76.7,-0.014,57.1,0.488,34.1,83.8,108,78.1,5.03,3.83,5.19,533.892,2501.63,12.00,0.029,0.0473,35.9708,6.41,5.48,37.1,32.8,0.813,268,218,90,0.84,0.465,0.0430,0.0430,1.075,1034,1034,15,1,125,28.7,115.9,113.2,36.6,37.8,116,37.0,113,38.2,88.4,39.5,36.0,44.5,4.27,4.27,3.68,-2.53,0.032543,1.26233648,0.211789,4.37188588
178.00,4.167,616.583,88.172,93.907,4879.936,729.185,0.9735,76.8,-0.032,57.0,0.488,34.1,108.2,108,78.1,5.03,3.91,5.18,533.892,2243.20,12.00,0.029,0.0473,35.9708,6.41,4.92,37.1,32.8,0.813,267,217,136,1.11,1.277,0.0430,0.0430,1.075,1033,1033,15,1,116,36.0,114.2,111.5,37.9,39.0,114,38.0,111,39.2,88.4,39.4,36.0,44.5,4.27,4.27,4.83,-3.25,0.032546,1.26516566,0.211897,4.38147403
179.00,4.167,620.750,88.262,93.890,4875.818,728.562,0.9736,76.7,0.048,56.9,0.488,34.1,86.2,108,78.1,5.02,3.83,5.18,533.892,2242.89,12.00,0.029,0.0473,35.9708,6.41,4.92,37.1,32.8,0.813,269,218,95,0.87,0.548,0.0430,0.0430,1.075,1033,1033,15,1,116,36.0,112.8,110.2,39.0,40.0,113,39.1,110,40.2,88.4,39.3,36.0,44.5,4.27,4.27,3.78,-2.28,0.032549,1.26799680,0.211995,4.39106302
180.00,4.167,624.917,88.458,93.886,4871.702,727.938,0.9735,76.7,-0.083,56.8,0.487,34.1,106.9,108,78.1,5.02,3.89,5.17,533.848,2501.92,12.00,0.029,0.0473,35.9681,6.41,6.89,37.1,32.8,0.812,266,216,133,1.10,1.220,0.0430,0.0430,1.075,1033,1033,15,1,159,0.7,115.4,112.7,36.7,37.8,113,38.4,111,39.5,88.3,39.4,35.9,44.5,4.27,4.27,4.70,-3.95,0.032551,1.27082527,0.212107,4.40064872
181.00,4.167,629.083,88.562,93.894,4867.583,727.315,0.9734,76.7,0.172,56.8,0.487,34.1,88.8,108,78.1,5.03,3.84,5.16,533.848,2776.58,12.00,0.029,0.0473,35.9681,6.41,7.62,37.1,32.8,0.813,269,219,100,0.89,0.636,0.0430,0.0430,1.075,1033,1033,15,1,160,0.3,118.8,116.1,34.1,35.3,117,35.9,114,37.2,88.3,39.4,35.9,44.5,4.27,4.27,3.98,-2.97,0.032554,1.27365560,0.212203,4.41023502
182.00,4.167,633.250,88.781,93.906,4863.468,726.692,0.9734,76.7,0.324,56.6,0.487,34.1,103.5,108,78.2,5.03,3.86,5.16,533.848,2501.65,12.00,0.029,0.0473,35.9681,6.41,5.48,37.1,32.8,0.812,265,215,126,1.07,1.089,0.0430,0.0430,1.075,1034,1034,15,1,125,28.7,115.9,113.2,36.6,37.7,116,36.9,113,38.1,88.2,39.5,35.9,44.5,4.28,4.28,4.33,-3.12,0.032559,1.27648382,0.212320,4.41981765
183.00,4.167,637.417,88.894,93.910,4859.349,726.069,0.9734,76.7,0.205,56.6,0.486,34.1,91.4,108,78.2,5.03,3.84,5.16,533.848,2243.20,12.00,0.029,0.0473,35.9681,6.41,4.92,37.1,32.8,0.813,270,219,105,0.92,0.726,0.0430,0.0430,1.074,1033,1033,15,1,116,36.0,114.1,111.4,37.9,39.0,114,38.1,111,39.2,88.2,39.4,35.9,44.5,4.28,4.28,4.10,-2.63,0.032562,1.27931362,0.212414,4.42940089
184.00,4.167,641.583,89.128,93.902,4855.234,725.446,0.9735,76.7,-0.090,56.5,0.486,34.1,97.4,108,78.2,5.03,3.84,5.15,533.848,2242.89,12.00,0.029,0.0473,35.9681,6.41,4.92,37.1,32.8,0.811,264,214,114,1.01,0.865,0.0430,0.0430,1.074,1033,1033,15,1,116,36.0,112.8,110.2,38.9,40.0,113,39.1,110,40.2,88.3,39.4,35.9,44.6,4.28,4.28,3.87,-2.44,0.032565,1.28214206,0.212534,4.43898065
185.00,4.167,645.750,89.247,93.909,4851.115,724.823,0.9734,76.7,0.153,56.4,0.486,34.1,94.2,108,78.3,5.03,3.85,5.15,533.817,2501.90,12.00,0.029,0.0473,35.9735,6.41,6.89,37.1,32.8,0.813,270,220,110,0.95,0.820,0.0431,0.0431,1.073,1033,1033,15,1,159,0.7,115.3,112.7,36.7,37.8,113,38.4,111,39.5,88.2,39.4,35.8,44.6,4.28,4.28,4.37,-3.62,0.032567,1.28497138,0.212628,4.44856101
186.00,4.167,649.917,89.489,93.917,4847.000,724.200,0.9733,76.7,-0.069,56.3,0.485,34.1,88.6,108,78.3,5.04,3.81,5.14,533.817,2776.56,12.00,0.029,0.0473,35.9735,6.41,7.62,37.1,32.8,0.811,265,215,98,0.91,0.567,0.0431,0.0431,1.072,1033,1033,15,1,160,0.3,118.8,116.1,34.1,35.3,117,35.9,114,37.2,88.2,39.4,35.8,44.6,4.28,4.28,3.59,-2.74,0.032570,1.28780015,0.212748,4.45813851
187.00,4.167,654.083,89.611,93.915,4842.881,723.577,0.9733,76.7,0.074,56.3,0.485,34.1,96.9,108,78.3,5.04,3.86,5.14,533.817,2501.66,12.00,0.029,0.0473,35.9735,6.41,5.48,37.1,32.8,0.813,271,220,115,0.97,0.912,0.0431,0.0431,1.072,1034,1034,15,1,125,28.7,115.8,113.1,36.6,37.8,115,37.0,113,38.2,88.1,39.5,35.8,44.6,4.28,4.28,4.44,-3.07,0.032574,1.29062909,0.212843,4.46771655
188.00,4.167,658.250,89.846,94.862,4838.765,722.954,0.9733,76.7,-0.069,55.6,0.482,34.1,90.0,109,79.3,5.00,3.80,5.11,533.817,2243.20,12.00,0.029,0.0473,35.9735,6.41,4.92,37.1,32.8,0.811,265,215,100,0.92,0.620,0.0431,0.0431,1.093,1033,1033,15,1,116,36.0,114.1,111.4,37.9,39.0,114,38.0,111,39.2,88.1,39.4,35.7,44.6,4.28,4.28,3.59,-2.36,0.032578,1.29345999,0.212958,4.47729382
189.00,4.167,662.417,89.938,94.927,4834.647,722.331,0.9734,76.7,0.114,55.4,0.480,34.1,95.7,109,79.6,4.98,3.83,5.10,533.817,2242.89,12.00,0.029,0.0473,35.9735,6.41,4.92,37.1,32.8,0.813,271,220,113,0.96,0.875,0.0431,0.0431,1.098,1033,1033,15,1,116,36.0,112.7,110.1,39.0,40.0,112,39.2,110,40.2,88.1,39.3,35.7,44.6,4.29,4.29,4.31,-2.62,0.032580,1.29629393,0.213049,4.48687524
190.00,4.167,666.583,90.065,94.653,4830.531,721.708,0.9733,76.7,-0.079,55.2,0.480,34.1,94.2,109,79.4,4.97,3.80,5.08,533.801,2501.89,12.00,0.029,0.0473,35.9626,6.41,6.89,37.1,32.8,0.811,266,215,108,0.97,0.756,0.0431,0.0431,1.097,1033,1033,15,1,159,0.7,115.3,112.6,36.7,37.8,113,38.4,111,39.5,88.1,39.4,35.7,44.6,4.29,4.29,3.85,-3.32,0.032583,1.29912920,0.213164,4.49645929
191.00,4.167,670.750,90.108,94.473,4826.414,721.085,0.9732,76.7,0.153,55.1,0.480,34.1,93.8,108,79.3,4.97,3.81,5.08,533.801,2776.54,12.00,0.029,0.0473,35.9626,6.41,7.62,37.1,32.8,0.813,271,221,109,0.94,0.804,0.0431,0.0431,1.095,1033,1033,15,1,160,0.3,118.7,116.0,34.1,35.3,117,35.9,114,37.2,88.0,39.4,35.7,44.6,4.29,4.29,4.28,-3.19,0.032586,1.30196520,0.213254,4.50604970
192.00,4.167,674.917,90.178,94.152,4822.299,720.462,0.9732,76.7,-0.090,55.0,0.480,34.1,97.8,108,79.0,4.96,3.80,5.06,533.801,2501.68,12.00,0.029,0.0473,35.9626,6.41,5.48,37.1,32.8,0.811,266,216,115,1.01,0.876,0.0431,0.0431,1.094,1034,1034,15,1,125,28.7,115.8,113.1,36.6,37.7,115,36.9,113,38.2,88.0,39.5,35.7,44.6,4.29,4.29,4.00,-2.85,0.032590,1.30479983,0.213369,4.51564272
193.00,4.167,679.083,90.212,94.027,4818.182,719.839,0.9732,76.7,0.182,54.9,0.480,34.1,92.0,108,78.9,4.95,3.80,5.06,533.801,2243.20,12.00,0.029,0.0473,35.9626,6.41,4.92,37.1,32.8,0.813,272,221,106,0.92,0.740,0.0431,0.0431,1.093,1033,1033,15,1,116,36.0,114.0,111.3,38.0,39.1,114,38.1,111,39.2,88.0,39.4,35.6,44.6,4.29,4.29,4.16,-2.67,0.032593,1.30763433,0.213460,4.52524091
194.00,4.167,683.250,90.293,93.839,4814.068,719.217,0.9732,76.7,-0.029,54.8,0.480,34.1,100.8,108,78.7,4.94,3.80,5.05,533.801,2242.89,12.00,0.029,0.0473,35.9626,6.41,4.92,37.1,32.8,0.811,268,217,121,1.04,0.983,0.0432,0.0432,1.093,1033,1033,15,1,116,36.0,112.7,110.0,38.9,40.0,112,39.1,110,40.2,88.0,39.4,35.6,44.6,4.29,4.29,4.13,-2.61,0.032596,1.31046659,0.213575,4.53483927
195.00,4.167,687.417,90.343,93.789,4809.951,718.594,0.9732,76.7,0.205,54.7,0.479,34.1,90.6,108,78.7,4.94,3.78,5.04,533.777,2501.89,12.00,0.029,0.0474,35.9860,6.41,6.89,37.1,32.8,0.813,273,221,103,0.91,0.688,0.0432,0.0432,1.093,1033,1033,15,1,159,0.7,115.2,112.5,36.8,37.9,113,38.4,110,39.5,87.9,39.4,35.6,44.6,4.29,4.29,4.19,-3.46,0.032598,1.31329906,0.213668,4.54444041
196.00,4.167,691.583,90.464,93.735,4805.837,717.971,0.9731,76.7,0.324,54.5,0.479,34.1,103.3,107,78.6,4.93,3.80,5.03,533.777,2776.54,12.00,0.029,0.0474,35.9860,6.41,7.62,37.1,32.8,0.811,269,218,126,1.06,1.072,0.0432,0.0432,1.094,1033,1033,15,1,160,0.3,118.7,116.0,34.1,35.3,116,35.9,114,37.2,87.9,39.5,35.6,44.6,4.30,4.30,4.44,-3.41,0.032601,1.31612921,0.213784,4.55403941
197.00,4.167,695.750,90.536,93.722,4801.721,717.348,0.9730,76.7,0.211,54.5,0.479,34.1,89.3,107,78.6,4.93,3.76,5.03,533.777,2501.68,12.00,0.029,0.0474,35.9860,6.41,5.48,37.1,32.8,0.812,273,222,101,0.89,0.642,0.0432,0.0432,1.094,1034,1034,15,1,125,28.7,115.7,113.0,36.6,37.8,115,37.0,112,38.2,87.8,39.5,35.5,44.6,4.30,4.30,4.02,-2.76,0.032606,1.31896024,0.213878,4.56363944
198.00,4.167,699.917,90.698,93.715,4797.606,716.725,0.9730,76.7,0.668,54.3,0.478,34.1,105.1,107,78.7,4.93,3.80,5.02,533.777,2243.20,12.00,0.029,0.0474,35.9860,6.41,4.92,37.1,32.8,0.811,270,219,130,1.08,1.140,0.0432,0.0432,1.095,1033,1033,15,1,116,36.0,114.0,111.2,37.9,39.0,114,38.0,111,39.2,87.8,39.4,35.5,44.6,4.30,4.30,4.54,-3.04,0.032610,1.32178911,0.213994,4.57323600
199.00,4.167,704.083,90.788,93.711,4793.490,716.102,0.9731,76.6,0.172,54.3,0.478,34.1,88.0,107,78.7,4.93,3.74,5.01,533.777,2242.89,12.00,0.029,0.0474,35.9860,6.41,4.92,37.1,32.8,0.812,274,222,99,0.88,0.598,0.0432,0.0432,1.095,1033,1033,15,1,116,36.0,112.6,109.9,39.0,40.0,112,39.2,110,40.2,87.8,39.4,35.5,44.6,4.30,4.30,3.92,-2.35,0.032612,1.32461949,0.214092,4.58283271
200.00,4.167,708.250,90.982,93.721,4789.376,715.479,0.9730,76.7,-0.072,54.2,0.478,34.1,106.3,107,78.7,4.93,3.79,5.01,533.775,2501.89,12.00,0.029,0.0474,35.9903,6.41,6.89,37.1,32.8,0.811,271,220,133,1.08,1.190,0.0432,0.0432,1.095,1033,1033,15,1,159,0.7,115.2,112.5,36.8,37.9,113,38.4,110,39.5,87.8,39.4,35.5,44.6,4.30,4.30,4.77,-3.94,0.032615,1.32744766,0.214208,4.59242550
201.00,4.167,712.417,91.086,93.732,4785.259,714.856,0.9729,76.6,0.059,54.1,0.477,34.1,86.8,107,78.7,4.93,3.73,5.00,533.775,2776.54,12.00,0.029,0.0474,35.9903,6.41,7.62,37.1,32.8,0.812,275,223,97,0.86,0.556,0.0432,0.0432,1.095,1033,1033,15,1,160,0.3,118.6,115.9,34.1,35.3,116,36.0,114,37.2,87.7,39.5,35.4,44.6,4.30,4.30,3.90,-2.88,0.032618,1.33027764,0.214309,4.60201824
202.00,4.167,716.583,91.304,93.748,4781.145,714.233,0.9729,76.7,-0.032,54.0,0.477,34.1,107.1,107,78.8,4.93,3.79,5.00,533.775,2501.68,12.00,0.029,0.0474,35.9903,6.41,5.48,37.1,32.8,0.811,273,221,135,1.09,1.221,0.0432,0.0432,1.095,1034,1034,15,1,125,28.7,115.7,112.9,36.6,37.8,115,37.0,112,38.2,87.7,39.5,35.4,44.6,4.30,4.30,4.85,-3.45,0.032624,1.33310541,0.214425,4.61160726
203.00,4.167,720.750,91.416,93.753,4777.029,713.610,0.9729,76.6,-0.010,54.0,0.477,34.1,85.6,107,78.8,4.93,3.71,4.99,533.775,2243.20,12.00,0.029,0.0474,35.9903,6.41,4.92,37.1,32.8,0.812,275,223,95,0.85,0.514,0.0432,0.0432,1.095,1033,1033,15,1,116,36.1,113.9,111.1,38.0,39.1,114,38.1,111,39.2,87.7,39.5,35.4,44.6,4.30,4.30,3.80,-2.41,0.032628,1.33593534,0.214528,4.62119637
204.00,4.167,724.917,91.647,93.743,4772.914,712.987,0.9729,76.7,-0.033,53.9,0.476,34.1,107.3,107,78.8,4.94,3.79,4.99,533.775,2242.89,12.00,0.029,0.0474,35.9903,6.41,4.92,37.1,32.8,0.811,274,222,136,1.08,1.233,0.0433,0.0433,1.094,1033,1033,15,1,116,36.1,112.6,109.9,39.0,40.0,112,39.2,110,40.2,87.7,39.4,35.3,44.6,4.31,4.31,4.86,-3.06,0.032631,1.33876307,0.214643,4.63078222
205.00,4.167,729.083,91.766,93.750,4768.798,712.364,0.9729,76.6,-0.038,53.8,0.476,34.1,84.5,107,78.8,4.94,3.69,4.99,533.778,2501.91,12.00,0.029,0.0474,36.0066,6.41,6.89,37.1,32.8,0.811,276,224,93,0.83,0.474,0.0433,0.0433,1.094,1033,1033,15,1,159,0.7,115.1,112.4,36.8,37.9,113,38.4,110,39.5,87.6,39.4,35.3,44.6,4.31,4.31,3.83,-3.19,0.032633,1.34159302,0.214750,4.64036835
206.00,4.167,733.250,92.005,93.757,4764.683,711.742,0.9728,76.7,-0.033,53.7,0.476,34.1,106.5,107,78.9,4.94,3.78,4.98,533.778,2776.57,12.00,0.029,0.0474,36.0066,6.41,7.62,37.1,32.8,0.811,276,224,135,1.07,1.216,0.0433,0.0433,1.093,1033,1033,15,1,160,0.3,118.6,115.8,34.1,35.3,116,35.9,113,37.2,87.5,39.5,35.3,44.6,4.31,4.31,5.04,-3.81,0.032637,1.34442076,0.214864,4.64995187
207.00,4.167,737.417,92.126,93.755,4760.568,711.119,0.9727,76.6,-0.045,53.7,0.476,34.1,83.3,107,78.9,4.94,3.68,4.98,533.778,2501.66,12.00,0.029,0.0474,36.0066,6.41,5.48,37.1,32.8,0.811,277,225,90,0.82,0.434,0.0433,0.0433,1.093,1034,1034,15,1,125,28.7,115.6,112.9,36.6,37.8,115,37.0,112,38.2,87.5,39.5,35.2,44.6,4.31,4.31,3.68,-2.50,0.032642,1.34725069,0.214973,4.65953586
208.00,4.167,741.583,92.369,93.745,4756.453,710.496,0.9728,76.7,-0.023,53.6,0.475,34.1,104.3,107,78.9,4.95,3.78,4.97,533.778,2243.20,12.00,0.029,0.0474,36.0066,6.41,4.92,37.1,32.8,0.812,277,225,131,1.04,1.150,0.0433,0.0433,1.092,1033,1033,15,1,115,36.1,113.8,111.1,38.0,39.1,114,38.1,111,39.2,87.5,39.5,35.2,44.6,4.31,4.31,4.99,-3.27,0.032646,1.35007865,0.215085,4.66911797
209.00,4.167,745.750,92.607,94.316,4752.338,709.873,0.9728,76.6,0.061,52.5,0.468,34.1,80.9,108,79.6,4.87,3.68,4.95,533.778,2242.89,12.00,0.029,0.0474,36.0066,6.41,4.92,37.1,32.8,0.811,278,225,86,0.79,0.351,0.0433,0.0433,1.117,1033,1033,15,1,115,36.1,112.5,109.8,39.0,40.0,112,39.2,110,40.2,87.5,39.4,35.2,44.6,4.31,4.31,3.50,-2.07,0.032649,1.35290947,0.215197,4.67870102
210.00,4.167,749.917,92.712,94.383,4748.222,709.250,0.9728,76.7,0.033,52.4,0.467,34.1,98.6,108,79.8,4.86,3.76,4.94,533.805,2501.93,12.00,0.029,0.0474,36.0065,6.41,6.89,37.1,32.8,0.812,278,226,119,0.98,0.960,0.0433,0.0433,1.120,1033,1033,15,1,159,0.7,115.0,112.3,36.8,37.9,113,38.5,110,39.6,87.5,39.4,35.2,44.6,4.31,4.31,4.72,-3.79,0.032651,1.35574088,0.215300,4.68828545
211.00,4.167,754.083,92.887,94.249,4744.108,708.627,0.9727,76.6,-0.086,52.2,0.466,34.1,89.8,108,79.7,4.85,3.69,4.93,533.805,2776.60,12.00,0.029,0.0474,36.0065,6.41,7.62,37.1,32.8,0.809,272,220,101,0.91,0.599,0.0433,0.0433,1.120,1033,1033,15,1,160,0.3,118.5,115.8,34.1,35.3,116,35.9,113,37.2,87.4,39.5,35.1,44.6,4.32,4.32,3.72,-2.80,0.032655,1.35857416,0.215418,4.69787176
212.00,4.167,758.250,92.961,94.138,4739.992,708.005,0.9726,76.6,0.176,52.2,0.466,34.1,92.7,107,79.6,4.85,3.71,4.93,533.805,2501.64,12.00,0.029,0.0474,36.0065,6.41,5.48,37.1,32.8,0.811,278,226,108,0.92,0.754,0.0434,0.0434,1.119,1034,1034,15,1,125,28.7,115.5,112.8,36.7,37.8,115,37.0,112,38.2,87.3,39.5,35.1,44.6,4.32,4.32,4.25,-2.90,0.032659,1.36140789,0.215515,4.70746226
213.00,4.167,762.417,93.096,93.928,4735.879,707.382,0.9726,76.6,0.668,52.1,0.466,34.1,103.5,107,79.5,4.85,3.71,4.92,533.805,2243.20,12.00,0.029,0.0474,36.0065,6.41,4.92,37.1,32.8,0.810,274,222,128,1.05,1.073,0.0434,0.0434,1.117,1033,1033,15,1,115,36.1,113.8,111.0,38.0,39.1,114,38.1,111,39.2,87.3,39.5,35.1,44.7,4.32,4.32,4.44,-2.95,0.032664,1.36424053,0.215634,4.71705398
214.00,4.167,766.583,93.162,93.835,4731.764,706.759,0.9726,76.6,0.116,52.0,0.466,34.1,87.3,107,79.4,4.84,3.66,4.91,533.805,2242.89,12.00,0.029,0.0474,36.0065,6.41,4.92,37.1,32.8,0.811,279,226,98,0.86,0.566,0.0434,0.0434,1.117,1033,1033,15,1,115,36.1,112.4,109.7,39.0,40.1,112,39.2,109,40.3,87.3,39.4,35.0,44.7,4.32,4.32,3.91,-2.33,0.032667,1.36707404,0.215734,4.72664976
215.00,4.167,770.750,93.297,93.700,4727.650,706.136,0.9726,76.7,-0.033,51.9,0.466,34.1,106.9,107,79.3,4.84,3.73,4.90,533.835,2501.95,12.00,0.029,0.0474,36.0254,6.41,6.89,37.1,32.8,0.811,278,225,135,1.07,1.213,0.0434,0.0434,1.116,1033,1033,15,1,159,0.7,114.9,112.2,36.8,37.9,113,38.5,110,39.6,87.3,39.5,35.0,44.7,4.32,4.32,5.04,-4.08,0.032669,1.36990495,0.215848,4.73624533
216.00,4.167,774.917,93.447,93.625,4723.537,705.513,0.9725,76.6,-0.032,51.8,0.465,34.1,82.5,107,79.2,4.84,3.63,4.89,533.835,2776.64,12.00,0.029,0.0474,36.0254,6.41,7.62,37.1,32.8,0.810,280,227,89,0.81,0.399,0.0434,0.0434,1.116,1033,1033,15,1,160,0.3,118.4,115.7,34.1,35.4,116,36.0,113,37.3,87.2,39.5,35.0,44.7,4.32,4.32,3.69,-2.69,0.032673,1.37273709,0.215956,4.74584298
217.00,4.167,779.083,93.528,93.600,4719.422,704.891,0.9724,76.7,0.001,51.7,0.465,34.1,100.7,107,79.2,4.84,3.75,4.89,533.835,2501.61,12.00,0.029,0.0474,36.0254,6.41,5.48,37.1,32.8,0.811,280,227,124,1.00,1.023,0.0434,0.0434,1.116,1034,1034,15,1,125,28.7,115.4,112.7,36.7,37.8,115,37.0,112,38.3,87.1,39.6,34.9,44.7,4.32,4.32,4.86,-3.34,0.032678,1.37556678,0.216063,4.75543975
218.00,4.167,783.250,93.703,93.560,4715.309,704.268,0.9724,76.6,-0.030,51.6,0.465,34.1,81.0,107,79.2,4.83,3.65,4.88,533.835,2243.20,12.00,0.029,0.0474,36.0254,6.41,4.92,37.1,32.8,0.809,277,224,85,0.80,0.325,0.0434,0.0434,1.116,1033,1033,15,1,115,36.1,113.7,110.9,38.0,39.1,114,38.1,111,39.3,87.1,39.5,34.9,44.7,4.32,4.32,3.47,-2.19,0.032682,1.37839735,0.216181,4.76503610
219.00,4.167,787.417,93.797,93.551,4711.195,703.645,0.9724,76.6,0.125,51.5,0.465,34.1,94.9,107,79.2,4.83,3.70,4.88,533.835,2242.89,12.00,0.029,0.0474,36.0254,6.41,4.92,37.1,32.8,0.811,281,228,113,0.94,0.825,0.0434,0.0434,1.116,1033,1033,15,1,115,36.1,112.3,109.6,39.0,40.1,112,39.2,109,40.3,87.1,39.5,34.9,44.7,4.33,4.33,4.42,-2.65,0.032685,1.38122686,0.216284,4.77463202
220.00,4.167,791.583,93.997,93.546,4707.082,703.022,0.9724,76.6,-0.076,51.4,0.464,34.1,97.5,107,79.2,4.83,3.67,4.87,533.875,2501.99,12.00,0.029,0.0474,36.0494,6.41,6.89,37.1,32.8,0.809,275,223,116,0.99,0.850,0.0435,0.0435,1.116,1033,1033,15,1,159,0.7,114.8,112.2,36.8,37.9,113,38.5,110,39.6,87.1,39.5,34.8,44.7,4.33,4.33,4.15,-3.47,0.032688,1.38405597,0.216407,4.78422544
221.00,4.167,795.750,94.102,93.551,4702.967,702.399,0.9723,76.6,0.199,51.4,0.464,34.1,89.7,107,79.2,4.83,3.65,4.87,533.875,2776.69,12.00,0.029,0.0474,36.0494,6.41,7.62,37.1,32.8,0.810,282,228,103,0.88,0.644,0.0435,0.0435,1.115,1033,1033,15,1,160,0.3,118.3,115.6,34.2,35.4,116,36.0,113,37.3,87.0,39.5,34.8,44.7,4.33,4.33,4.13,-3.02,0.032692,1.38688569,0.216508,4.79381913
222.00,4.167,799.917,94.320,93.556,4698.854,701.777,0.9722,76.6,-0.050,51.3,0.464,34.1,106.0,107,79.3,4.84,3.69,4.86,533.875,2501.58,12.00,0.029,0.0474,36.0494,6.41,5.48,37.1,32.8,0.809,279,226,134,1.06,1.166,0.0435,0.0435,1.115,1034,1034,15,1,124,28.8,115.3,112.6,36.7,37.9,115,37.0,112,38.3,86.9,39.6,34.8,44.7,4.33,4.33,4.82,-3.40,0.032698,1.38971385,0.216629,4.80340972
223.00,4.167,804.083,94.432,93.557,4694.740,701.154,0.9722,76.6,-0.039,51.2,0.463,34.1,84.8,107,79.3,4.84,3.61,4.86,533.875,2243.20,12.00,0.029,0.0474,36.0494,6.41,4.92,37.1,32.8,0.810,282,229,94,0.83,0.476,0.0435,0.0435,1.115,1033,1033,15,1,115,36.1,113.5,110.8,38.0,39.2,113,38.2,111,39.3,86.9,39.5,34.7,44.7,4.33,4.33,3.81,-2.39,0.032702,1.39254387,0.216737,4.81300069
224.00,4.167,808.250,94.663,93.542,4690.626,700.531,0.9723,76.6,-0.018,51.1,0.463,34.1,103.6,107,79.3,4.84,3.71,4.86,533.875,2242.89,12.00,0.029,0.0474,36.0494,6.41,4.92,37.1,32.8,0.810,283,229,130,1.02,1.115,0.0435,0.0435,1.114,1033,1033,15,1,115,36.1,112.2,109.5,39.1,40.1,112,39.3,109,40.3,86.9,39.5,34.7,44.7,4.33,4.33,4.99,-3.08,0.032706,1.39537190,0.216852,4.82258904
225.00,4.167,812.417,94.899,93.550,4686.513,699.908,0.9722,76.6,0.057,51.0,0.463,34.1,80.4,107,79.3,4.84,3.60,4.85,533.928,2502.04,12.00,0.029,0.0475,36.0753,6.41,6.89,37.1,32.8,0.809,283,229,86,0.78,0.324,0.0435,0.0435,1.114,1033,1033,15,1,159,0.7,114.7,112.1,36.8,38.0,113,38.5,110,39.6,86.9,39.5,34.7,44.7,4.33,4.33,3.64,-3.01,0.032709,1.39820174,0.216969,4.83217709
226.00,4.167,816.583,95.019,93.553,4682.399,699.286,0.9721,76.6,0.054,51.0,0.463,34.1,97.7,107,79.3,4.85,3.69,4.85,533.928,2776.76,12.00,0.029,0.0475,36.0753,6.41,7.62,37.1,32.8,0.810,284,230,119,0.96,0.918,0.0435,0.0435,1.113,1033,1033,15,1,160,0.3,118.2,115.5,34.2,35.4,116,36.0,113,37.3,86.8,39.6,34.6,44.7,4.34,4.34,4.70,-3.43,0.032713,1.40103018,0.217078,4.84176397
227.00,4.167,820.750,95.261,93.550,4678.287,698.663,0.9720,76.6,-0.084,50.9,0.462,34.1,90.0,107,79.4,4.85,3.62,4.84,533.928,2501.54,12.00,0.029,0.0475,36.0753,6.41,5.48,37.1,32.8,0.808,277,224,102,0.90,0.591,0.0435,0.0435,1.112,1034,1034,15,1,124,28.8,115.3,112.5,36.7,37.9,115,37.0,112,38.3,86.8,39.6,34.6,44.7,4.34,4.34,3.76,-2.60,0.032719,1.40385932,0.217204,4.85134937
228.00,4.167,824.917,95.382,94.014,4674.172,698.040,0.9720,76.6,0.210,50.9,0.462,34.1,91.2,107,79.4,4.85,3.61,4.83,533.928,2243.20,12.00,0.029,0.0475,36.0753,6.41,4.92,37.1,32.8,0.810,284,230,106,0.89,0.695,0.0436,0.0436,1.118,1033,1033,15,1,115,36.1,113.4,110.7,38.1,39.2,113,38.2,110,39.3,86.7,39.6,34.6,44.7,4.34,4.34,4.17,-2.63,0.032723,1.40668992,0.217305,4.86093607
229.00,4.167,829.083,95.588,94.598,4670.058,697.418,0.9721,76.6,-0.034,50.1,0.457,34.1,107.3,107,80.6,4.79,3.66,4.81,533.928,2242.89,12.00,0.029,0.0475,36.0753,6.41,4.92,37.1,32.8,0.809,282,228,136,1.07,1.223,0.0436,0.0436,1.140,1033,1033,15,1,115,36.1,112.1,109.4,39.1,40.2,112,39.3,109,40.4,86.7,39.5,34.5,44.7,4.34,4.34,4.91,-3.07,0.032727,1.40952276,0.217421,4.87052383
230.00,4.167,833.250,95.720,94.377,4665.945,696.795,0.9720,76.6,0.007,49.9,0.457,34.1,82.6,107,80.5,4.77,3.57,4.79,533.995,2502.09,12.00,0.029,0.0475,36.0978,6.41,6.89,37.1,32.8,0.809,285,230,90,0.80,0.400,0.0436,0.0436,1.141,1033,1033,15,1,159,0.7,114.6,111.9,36.9,38.0,113,38.5,110,39.7,86.7,39.5,34.5,44.7,4.34,4.34,3.77,-3.08,0.032730,1.41235966,0.217529,4.88011702
231.00,4.167,837.417,95.765,94.210,4661.831,696.172,0.9719,76.6,0.054,49.8,0.457,34.1,97.4,107,80.4,4.77,3.65,4.79,533.995,2776.85,12.00,0.029,0.0475,36.0978,6.41,7.62,37.1,32.8,0.810,285,231,118,0.96,0.907,0.0436,0.0436,1.139,1033,1033,15,1,160,0.3,118.1,115.4,34.2,35.5,116,36.1,113,37.4,86.6,39.6,34.5,44.7,4.34,4.34,4.68,-3.40,0.032734,1.41519588,0.217634,4.88971461
232.00,4.167,841.583,95.836,93.893,4657.720,695.550,0.9718,76.6,-0.076,49.7,0.457,34.1,97.9,107,80.1,4.76,3.61,4.77,533.995,2501.48,12.00,0.029,0.0475,36.0978,6.41,5.48,37.1,32.8,0.808,279,225,117,0.99,0.860,0.0436,0.0436,1.138,1034,1034,15,1,124,28.8,115.1,112.4,36.7,37.9,115,37.1,112,38.3,86.5,39.6,34.4,44.7,4.34,4.34,4.20,-2.93,0.032739,1.41803198,0.217754,4.89931606
233.00,4.167,845.750,95.868,93.761,4653.607,694.927,0.9718,76.6,0.147,49.6,0.457,34.1,87.8,106,80.0,4.76,3.58,4.77,533.995,2243.20,12.00,0.029,0.0475,36.0978,6.41,4.92,37.1,32.8,0.809,285,231,100,0.86,0.573,0.0436,0.0436,1.137,1033,1033,15,1,115,36.2,113.3,110.5,38.1,39.2,113,38.2,110,39.4,86.5,39.6,34.4,44.7,4.34,4.34,4.03,-2.52,0.032744,1.42086785,0.217854,4.90892268
234.00,4.167,849.917,95.940,93.546,4649.495,694.304,0.9718,76.6,-0.028,49.5,0.456,34.1,104.1,106,79.8,4.75,3.65,4.76,533.995,2242.89,12.00,0.029,0.0475,36.0978,6.41,4.92,37.1,32.8,0.809,286,231,131,1.03,1.124,0.0436,0.0436,1.136,1033,1033,15,1,115,36.2,111.9,109.2,39.1,40.2,112,39.3,109,40.4,86.5,39.5,34.4,44.7,4.35,4.35,5.04,-3.11,0.032747,1.42370103,0.217967,4.91853041
235.00,4.167,854.083,96.032,93.431,4645.383,693.682,0.9718,76.6,0.038,49.4,0.456,34.1,79.7,106,79.7,4.74,3.57,4.75,534.082,2502.16,12.00,0.029,0.0476,36.1449,6.41,6.90,37.1,32.8,0.808,286,231,84,0.77,0.293,0.0437,0.0437,1.137,1033,1033,15,1,159,0.7,114.5,111.8,36.9,38.1,112,38.6,110,39.7,86.5,39.6,34.3,44.8,4.35,4.35,3.65,-2.99,0.032750,1.42653464,0.218081,4.92814020
236.00,4.167,858.250,96.087,93.397,4641.271,693.059,0.9716,76.6,0.125,49.3,0.456,34.1,94.0,106,79.7,4.74,3.61,4.74,534.082,2776.94,12.00,0.029,0.0476,36.1449,6.41,7.62,37.1,32.8,0.809,287,232,112,0.92,0.782,0.0437,0.0437,1.137,1033,1033,15,1,160,0.3,118.0,115.2,34.3,35.5,116,36.1,113,37.4,86.3,39.7,34.3,44.8,4.35,4.35,4.49,-3.25,0.032755,1.42936629,0.218186,4.93775019
237.00,4.167,862.417,96.218,93.353,4637.160,692.436,0.9715,76.6,0.668,49.2,0.455,34.1,102.7,106,79.7,4.73,3.61,4.73,534.082,2501.41,12.00,0.029,0.0476,36.1449,6.41,5.48,37.1,32.8,0.808,282,228,128,1.03,1.031,0.0437,0.0437,1.138,1034,1034,15,1,124,28.9,115.0,112.2,36.8,38.0,115,37.1,112,38.4,86.3,39.7,34.3,44.8,4.35,4.35,4.61,-3.23,0.032761,1.43219690,0.218307,4.94735825
238.00,4.167,866.583,96.292,93.341,4633.047,691.814,0.9715,76.5,-0.007,49.1,0.455,34.1,85.2,106,79.7,4.73,3.55,4.73,534.082,2243.20,12.00,0.029,0.0476,36.1449,6.41,4.92,37.1,32.8,0.808,287,232,95,0.83,0.480,0.0437,0.0437,1.138,1033,1033,15,1,115,36.2,113.1,110.4,38.1,39.3,113,38.3,110,39.4,86.2,39.7,34.3,44.8,4.35,4.35,3.90,-2.42,0.032766,1.43502834,0.218413,4.95696655
239.00,4.167,870.750,96.459,93.316,4628.935,691.191,0.9716,76.6,-0.007,49.0,0.455,34.1,100.9,106,79.6,4.73,3.65,4.72,534.082,2242.89,12.00,0.029,0.0476,36.1449,6.41,4.92,37.1,32.8,0.809,288,233,126,0.99,1.017,0.0437,0.0437,1.138,1033,1033,15,1,115,36.2,111.8,109.0,39.2,40.3,111,39.4,109,40.5,86.2,39.6,34.2,44.8,4.35,4.35,4.95,-2.99,0.032770,1.43785775,0.218527,4.96657192
240.00,4.167,874.917,96.646,93.331,4624.824,690.568,0.9715,76.5,-0.059,48.9,0.454,34.1,85.0,106,79.7,4.73,3.56,4.72,534.177,2502.23,12.00,0.029,0.0476,36.1889,6.41,6.90,37.1,32.8,0.807,282,227,94,0.84,0.431,0.0437,0.0437,1.139,1033,1033,15,1,159,0.7,114.3,111.7,37.0,38.1,112,38.6,110,39.8,86.2,39.6,34.2,44.8,4.35,4.35,3.74,-3.08,0.032774,1.44068812,0.218649,4.97617554
241.00,4.167,879.083,96.747,93.340,4620.711,689.946,0.9714,76.5,0.198,48.9,0.454,34.1,91.4,106,79.7,4.73,3.57,4.71,534.177,2777.05,12.00,0.029,0.0476,36.1889,6.41,7.62,37.1,32.8,0.809,288,233,107,0.89,0.690,0.0437,0.0437,1.139,1033,1033,15,1,160,0.3,117.8,115.1,34.3,35.5,116,36.2,113,37.5,86.1,39.7,34.2,44.8,4.36,4.36,4.32,-3.12,0.032778,1.44351799,0.218755,4.98577780
242.00,4.167,883.250,96.958,93.353,4616.600,689.323,0.9713,76.6,-0.030,48.8,0.454,34.1,105.4,106,79.8,4.73,3.60,4.71,534.177,2501.34,12.00,0.029,0.0476,36.1889,6.41,5.48,37.1,32.8,0.808,285,230,134,1.04,1.133,0.0438,0.0438,1.139,1034,1034,15,1,124,28.9,114.8,112.1,36.8,38.0,114,37.2,112,38.4,86.0,39.7,34.1,44.8,4.36,4.36,4.93,-3.44,0.032785,1.44634698,0.218879,4.99537677
243.00,4.167,887.417,97.180,93.340,4612.488,688.701,0.9713,76.5,-0.032,48.7,0.453,34.1,83.0,106,79.8,4.73,3.51,4.70,534.177,2243.19,12.00,0.029,0.0476,36.1889,6.41,4.92,37.1,32.8,0.808,289,233,91,0.80,0.403,0.0438,0.0438,1.139,1033,1033,15,1,115,36.3,113.0,110.2,38.2,39.3,113,38.3,110,39.5,86.0,39.7,34.1,44.8,4.36,4.36,3.77,-2.33,0.032790,1.44917766,0.218991,5.00497543
244.00,4.167,891.583,97.294,93.348,4608.376,688.078,0.9713,76.6,0.041,48.7,0.453,34.1,98.1,106,79.8,4.73,3.61,4.70,534.177,2242.89,12.00,0.029,0.0476,36.1889,6.41,4.92,37.1,32.8,0.808,290,234,121,0.95,0.918,0.0438,0.0438,1.138,1033,1033,15,1,115,36.3,111.6,108.9,39.2,40.3,111,39.4,109,40.5,86.0,39.7,34.1,44.8,4.36,4.36,4.77,-2.84,0.032794,1.45200686,0.219106,5.01457174
245.00,4.167,895.750,97.527,93.357,4604.265,687.455,0.9713,76.5,-0.090,48.6,0.453,34.1,93.6,106,79.8,4.74,3.55,4.69,534.284,2502.31,12.00,0.029,0.0477,36.2299,6.41,6.90,37.1,32.8,0.806,283,228,110,0.93,0.704,0.0438,0.0438,1.138,1033,1033,15,1,159,0.7,114.2,111.5,37.0,38.1,112,38.7,109,39.8,86.0,39.7,34.0,44.8,4.36,4.36,4.08,-3.34,0.032799,1.45483679,0.219233,5.02416620
246.00,4.167,899.917,97.646,93.361,4600.152,686.833,0.9711,76.5,0.152,48.5,0.453,34.1,89.0,106,79.8,4.74,3.53,4.69,534.284,2777.17,12.00,0.029,0.0477,36.2299,6.41,7.62,37.1,32.8,0.808,290,234,103,0.86,0.604,0.0438,0.0438,1.137,1033,1033,15,1,160,0.3,117.7,115.0,34.3,35.6,115,36.2,113,37.5,85.9,39.8,34.0,44.8,4.36,4.36,4.17,-3.00,0.032803,1.45766719,0.219341,5.03376066
247.00,4.167,904.083,97.885,93.360,4596.041,686.210,0.9710,76.6,-0.033,48.4,0.452,34.1,105.4,106,79.9,4.74,3.59,4.69,534.284,2501.27,12.00,0.029,0.0477,36.2299,6.41,5.48,37.1,32.8,0.808,289,233,134,1.03,1.146,0.0438,0.0438,1.136,1034,1034,15,1,124,28.9,114.7,111.9,36.9,38.1,114,37.2,111,38.5,85.8,39.8,33.9,44.8,4.36,4.36,5.13,-3.55,0.032810,1.46049639,0.219464,5.04335276
248.00,4.167,908.250,98.127,93.336,4591.930,685.588,0.9710,76.5,0.069,48.3,0.452,34.1,80.9,106,79.9,4.74,3.50,4.68,534.284,2243.19,12.00,0.029,0.0477,36.2299,6.41,4.92,37.1,32.8,0.807,291,235,88,0.77,0.330,0.0439,0.0439,1.136,1033,1033,15,1,115,36.3,112.9,110.1,38.2,39.4,113,38.3,110,39.5,85.8,39.8,33.9,44.8,4.36,4.36,3.64,-2.24,0.032816,1.46332741,0.219583,5.05294520
249.00,4.167,912.417,98.248,93.334,4587.818,684.965,0.9711,76.5,0.117,48.3,0.452,34.1,95.3,106,79.9,4.75,3.56,4.68,534.284,2242.89,12.00,0.029,0.0477,36.2299,6.41,4.92,37.1,32.8,0.808,291,235,116,0.92,0.821,0.0439,0.0439,1.135,1033,1033,15,1,115,36.3,111.5,108.7,39.3,40.4,111,39.5,108,40.6,85.8,39.7,33.9,44.8,4.37,4.37,4.57,-2.70,0.032820,1.46615733,0.219697,5.06253677
250.00,4.167,916.583,98.492,93.602,4583.707,684.343,0.9710,76.6,0.668,47.8,0.447,34.1,103.5,106,79.9,4.70,3.54,4.67,534.398,2502.38,12.00,0.029,0.0477,36.2669,6.41,6.90,37.1,32.8,0.807,287,231,130,1.02,1.055,0.0439,0.0439,1.149,1033,1033,15,1,159,0.7,114.1,111.4,37.0,38.2,112,38.7,109,39.9,85.7,39.7,33.8,44.8,4.37,4.37,4.74,-3.80,0.032824,1.46898763,0.219823,5.07212706
251.00,4.167,920.750,98.714,94.056,4579.595,683.720,0.9709,76.5,-0.032,47.2,0.444,34.1,84.1,106,80.8,4.66,3.47,4.65,534.398,2777.28,12.00,0.029,0.0477,36.2669,6.41,7.62,37.1,32.8,0.807,292,236,94,0.81,0.440,0.0439,0.0439,1.166,1033,1033,15,1,160,0.3,117.6,114.9,34.4,35.6,115,36.2,112,37.5,85.7,39.8,33.8,44.8,4.37,4.37,3.86,-2.75,0.032829,1.47182117,0.219934,5.08172001
252.00,4.167,924.917,98.808,94.021,4575.483,683.098,0.9708,76.5,0.071,47.1,0.443,34.1,96.4,106,80.9,4.65,3.55,4.64,534.398,2501.19,12.00,0.029,0.0477,36.2669,6.41,5.48,37.1,32.8,0.808,292,236,117,0.93,0.859,0.0439,0.0439,1.167,1034,1034,15,1,124,29.0,114.5,111.8,36.9,38.1,114,37.3,111,38.5,85.6,39.9,33.8,44.8,4.37,4.37,4.67,-3.13,0.032835,1.47465554,0.220046,5.09131495
253.00,4.167,929.083,98.964,93.824,4571.372,682.475,0.9708,76.5,0.668,47.0,0.443,34.1,103.2,106,80.7,4.65,3.53,4.64,534.398,2243.19,12.00,0.029,0.0477,36.2669,6.41,4.92,37.1,32.8,0.806,287,232,129,1.02,1.043,0.0439,0.0439,1.166,1033,1033,15,1,114,36.4,112.7,110.0,38.3,39.4,113,38.4,110,39.6,85.5,39.8,33.7,44.9,4.37,4.37,4.67,-3.04,0.032841,1.47749102,0.220169,5.10091232
254.00,4.167,933.250,99.095,93.605,4567.261,681.852,0.9708,76.5,-0.032,46.9,0.443,34.1,83.7,106,80.5,4.64,3.46,4.63,534.398,2242.89,12.00,0.029,0.0477,36.2669,6.41,4.92,37.1,32.8,0.807,293,236,93,0.80,0.421,0.0440,0.0440,1.164,1033,1033,15,1,114,36.4,111.3,108.6,39.3,40.4,111,39.5,108,40.6,85.5,39.8,33.7,44.9,4.37,4.37,3.82,-2.21,0.032845,1.48032770,0.220279,5.11051431
255.00,4.167,937.417,99.158,93.513,4563.150,681.230,0.9708,76.5,0.071,46.8,0.443,34.1,95.9,106,80.4,4.64,3.53,4.62,534.511,2502.46,12.00,0.029,0.0478,36.3108,6.41,6.90,37.1,32.8,0.807,293,237,117,0.93,0.837,0.0440,0.0440,1.163,1033,1033,15,1,159,0.7,113.9,111.2,37.1,38.3,112,38.8,109,39.9,85.5,39.8,33.7,44.9,4.37,4.37,4.77,-3.69,0.032848,1.48316259,0.220392,5.12011850
256.00,4.167,941.583,99.284,93.373,4559.040,680.607,0.9706,76.5,0.668,46.7,0.442,34.1,102.7,106,80.3,4.64,3.52,4.61,534.511,2777.39,12.00,0.029,0.0478,36.3108,6.41,7.62,37.1,32.8,0.806,288,232,129,1.01,1.023,0.0440,0.0440,1.162,1033,1033,15,1,160,0.3,117.5,114.7,34.4,35.7,115,36.3,112,37.6,85.4,39.9,33.6,44.9,4.38,4.38,4.76,-3.52,0.032854,1.48599673,0.220516,5.12972390
257.00,4.167,945.750,99.420,93.273,4554.930,679.985,0.9705,76.5,-0.032,46.6,0.442,34.1,83.5,105,80.2,4.64,3.45,4.60,534.511,2501.12,12.00,0.029,0.0478,36.3108,6.41,5.48,37.1,32.8,0.807,294,237,93,0.80,0.409,0.0440,0.0440,1.162,1034,1034,15,1,124,29.1,114.4,111.6,37.0,38.2,114,37.3,111,38.6,85.3,39.9,33.6,44.9,4.38,4.38,3.86,-2.54,0.032860,1.48883122,0.220627,5.13933183
258.00,4.167,949.917,99.493,93.236,4550.819,679.362,0.9705,76.5,0.071,46.6,0.442,34.1,95.6,105,80.2,4.63,3.52,4.60,534.511,2243.19,12.00,0.029,0.0478,36.3108,6.41,4.92,37.1,32.8,0.807,294,237,116,0.92,0.825,0.0440,0.0440,1.162,1033,1033,15,1,114,36.4,112.5,109.8,38.3,39.5,112,38.5,110,39.7,85.3,39.9,33.6,44.9,4.38,4.38,4.68,-2.91,0.032866,1.49166384,0.220740,5.14893960
259.00,4.167,954.083,99.650,93.172,4546.710,678.740,0.9705,76.5,0.668,46.5,0.442,34.1,102.5,105,80.2,4.63,3.51,4.59,534.511,2242.89,12.00,0.029,0.0478,36.3108,6.41,4.92,37.1,32.8,0.806,289,233,129,1.01,1.012,0.0440,0.0440,1.162,1033,1033,15,1,114,36.4,111.2,108.4,39.4,40.5,111,39.6,108,40.7,85.3,39.8,33.5,44.9,4.38,4.38,4.65,-2.87,0.032870,1.49449598,0.220866,5.15854628
260.00,4.167,958.250,99.823,93.149,4542.599,678.118,0.9705,76.5,-0.032,46.4,0.441,34.1,83.4,105,80.2,4.63,3.43,4.59,534.616,2502.51,12.00,0.029,0.0479,36.3665,6.42,6.90,37.1,32.8,0.806,295,238,93,0.80,0.405,0.0440,0.0440,1.162,1033,1033,15,1,159,0.7,113.7,111.0,37.2,38.3,112,38.8,109,40.0,85.2,39.8,33.5,44.9,4.38,4.38,3.95,-3.12,0.032875,1.49732881,0.220978,5.16815353
261.00,4.167,962.417,99.915,93.143,4538.488,677.495,0.9703,76.5,0.071,46.3,0.441,34.1,95.6,105,80.2,4.63,3.51,4.58,534.616,2777.48,12.00,0.029,0.0479,36.3665,6.42,7.62,37.1,32.8,0.807,295,238,116,0.92,0.821,0.0441,0.0441,1.162,1033,1033,15,1,160,0.3,117.3,114.5,34.5,35.7,115,36.3,112,37.7,85.1,39.9,33.5,44.9,4.38,4.38,4.73,-3.37,0.032880,1.50016007,0.221094,5.17775910
262.00,4.167,966.583,100.110,93.135,4534.379,676.873,0.9702,76.5,0.017,46.2,0.441,34.1,102.4,105,80.2,4.63,3.49,4.58,534.616,2501.07,12.00,0.029,0.0479,36.3665,6.42,5.48,37.1,32.8,0.805,290,234,129,1.00,1.008,0.0441,0.0441,1.162,1034,1034,15,1,123,29.1,114.3,111.5,37.0,38.2,114,37.4,111,38.6,85.0,40.0,33.4,44.9,4.38,4.38,4.74,-3.27,0.032887,1.50299118,0.221221,5.18736259
263.00,4.167,970.750,100.317,93.108,4530.269,676.250,0.9702,76.5,-0.032,46.1,0.440,34.1,83.4,105,80.2,4.63,3.42,4.57,534.616,2243.19,12.00,0.029,0.0479,36.3665,6.42,4.92,37.1,32.8,0.806,296,238,93,0.79,0.404,0.0441,0.0441,1.162,1033,1033,15,1,114,36.5,112.4,109.6,38.4,39.6,112,38.5,109,39.7,85.0,39.9,33.4,44.9,4.38,4.38,3.86,-2.36,0.032893,1.50582337,0.221335,5.19696604
264.00,4.167,974.917,100.424,93.113,4526.158,675.628,0.9703,76.5,0.098,46.1,0.440,34.1,95.6,105,80.2,4.63,3.49,4.57,534.616,2242.89,12.00,0.029,0.0479,36.3665,6.42,4.92,37.1,32.8,0.806,296,239,117,0.92,0.819,0.0441,0.0441,1.161,1033,1033,15,1,114,36.5,110.9,108.2,39.4,40.5,111,39.6,108,40.8,85.0,39.9,33.4,44.9,4.39,4.39,4.68,-2.75,0.032898,1.50865429,0.221453,5.20656750
265.00,4.167,979.083,100.645,93.121,4522.049,675.005,0.9702,76.5,0.017,46.0,0.440,34.1,102.4,105,80.2,4.63,3.48,4.56,534.702,2502.56,12.00,0.029,0.0479,36.4208,6.42,6.90,37.1,32.8,0.805,291,234,129,1.00,1.005,0.0441,0.0441,1.161,1033,1033,15,1,159,0.7,113.6,110.9,37.2,38.4,112,38.9,109,40.0,85.0,39.9,33.3,44.9,4.39,4.39,4.79,-3.79,0.032903,1.51148529,0.221582,5.21616681
266.00,4.167,983.250,100.873,93.126,4517.939,674.383,0.9701,76.5,-0.032,46.0,0.440,34.1,83.5,105,80.3,4.64,3.41,4.56,534.702,2777.55,12.00,0.029,0.0479,36.4208,6.42,7.62,37.1,32.8,0.806,297,239,93,0.79,0.405,0.0441,0.0441,1.160,1033,1033,15,1,160,0.3,117.2,114.4,34.5,35.8,115,36.4,112,37.7,84.9,40.0,33.3,44.9,4.39,4.39,3.90,-2.75,0.032908,1.51431746,0.221698,5.22576623
267.00,4.167,987.417,100.988,93.125,4513.829,673.760,0.9699,76.5,0.098,45.9,0.439,34.1,95.6,105,80.3,4.64,3.48,4.56,534.702,2501.02,12.00,0.029,0.0479,36.4208,6.42,5.48,37.1,32.8,0.806,297,240,117,0.91,0.817,0.0442,0.0442,1.160,1034,1034,15,1,123,29.1,114.1,111.3,37.1,38.3,114,37.4,111,38.7,84.8,40.0,33.3,44.9,4.39,4.39,4.73,-3.13,0.032915,1.51714846,0.221816,5.23536399
268.00,4.167,991.583,101.222,93.119,4509.720,673.138,0.9700,76.5,0.017,45.8,0.439,34.1,102.3,105,80.3,4.64,3.46,4.55,534.702,2243.19,12.00,0.029,0.0479,36.4208,6.42,4.92,37.1,32.8,0.805,292,235,129,1.00,1.001,0.0442,0.0442,1.159,1033,1033,15,1,114,36.5,112.3,109.5,38.4,39.6,112,38.5,109,39.7,84.8,40.0,33.2,44.9,4.39,4.39,4.72,-3.05,0.032922,1.51997970,0.221946,5.24496005
269.00,4.167,995.750,101.459,93.102,4505.609,672.516,0.9700,76.5,-0.032,45.8,0.439,34.1,83.5,105,80.3,4.64,3.39,4.55,534.702,2242.89,12.00,0.029,0.0479,36.4208,6.42,4.92,37.1,32.8,0.805,298,240,94,0.79,0.404,0.0442,0.0442,1.158,1033,1033,15,1,114,36.5,110.8,108.1,39.5,40.6,111,39.7,108,40.8,84.8,40.0,33.2,44.9,4.39,4.39,3.86,-2.22,0.032927,1.52281223,0.222063,5.25455663
270.00,4.167,999.917,101.578,93.097,4501.499,671.893,0.9699,76.5,0.098,45.7,0.439,34.1,95.5,105,80.3,4.65,3.47,4.54,534.768,2502.58,12.00,0.029,0.0480,36.4646,6.42,6.90,37.1,32.8,0.806,298,240,117,0.91,0.815,0.0442,0.0442,1.158,1033,1033,15,1,159,0.7,113.4,110.7,37.3,38.4,111,38.9,109,40.1,84.7,40.0,33.1,45.0,4.39,4.39,4.83,-3.69,0.032931,1.52564361,0.222183,5.26415196
271.00,4.167,1004.083,101.817,93.483,4497.390,671.271,0.9697,76.5,-0.062,45.5,0.437,34.1,104.8,105,80.3,4.63,3.46,4.53,534.768,2777.57,12.00,0.029,0.0480,36.4646,6.42,7.62,37.1,32.8,0.805,294,237,134,1.02,1.094,0.0442,0.0442,1.166,1033,1033,15,1,160,0.3,117.0,114.3,34.5,35.8,115,36.4,112,37.7,84.6,40.1,33.1,45.0,4.40,4.40,5.02,-3.67,0.032937,1.52847557,0.222311,5.27374630
272.00,4.167,1008.250,102.029,94.063,4493.280,670.649,0.9697,76.5,0.007,44.8,0.432,34.1,81.5,106,81.5,4.57,3.40,4.51,534.768,2501.00,12.00,0.029,0.0480,36.4646,6.42,5.48,37.1,32.8,0.805,299,240,89,0.77,0.341,0.0443,0.0443,1.189,1034,1034,15,1,123,29.2,113.9,111.1,37.1,38.3,114,37.5,111,38.8,84.6,40.1,33.1,45.0,4.40,4.40,3.75,-2.45,0.032944,1.53131148,0.222428,5.28334354
273.00,4.167,1012.417,102.113,94.024,4489.170,670.026,0.9697,76.5,0.202,44.7,0.432,34.1,90.5,106,81.5,4.56,3.41,4.51,534.768,2243.19,12.00,0.029,0.0480,36.4646,6.42,4.92,37.1,32.8,0.805,299,241,107,0.86,0.643,0.0443,0.0443,1.191,1033,1033,15,1,114,36.6,112.0,109.2,38.5,39.7,112,38.6,109,39.8,84.5,40.1,33.0,45.0,4.40,4.40,4.32,-2.65,0.032950,1.53414958,0.222539,5.29294413
274.00,4.167,1016.583,102.242,93.768,4485.060,669.404,0.9697,76.5,-0.004,44.6,0.431,34.1,100.7,105,81.3,4.56,3.48,4.49,534.768,2242.89,12.00,0.029,0.0480,36.4646,6.42,4.92,37.1,32.8,0.806,299,241,127,0.96,0.991,0.0443,0.0443,1.190,1033,1033,15,1,114,36.6,110.6,107.9,39.6,40.7,110,39.8,108,40.9,84.5,40.0,33.0,45.0,4.40,4.40,5.09,-3.02,0.032955,1.53698840,0.222659,5.30254828
275.00,4.167,1020.750,102.339,93.504,4480.952,668.781,0.9696,76.5,0.024,44.5,0.431,34.1,97.9,105,81.1,4.55,3.42,4.48,534.796,2502.58,12.00,0.029,0.0481,36.5274,6.42,6.90,37.1,32.8,0.804,292,235,120,0.96,0.838,0.0443,0.0443,1.188,1033,1033,15,1,159,0.7,113.2,110.5,37.3,38.5,111,39.0,108,40.2,84.4,40.0,33.0,45.0,4.40,4.40,4.48,-3.55,0.032959,1.53982772,0.222783,5.31215664
276.00,4.167,1024.917,102.427,93.291,4476.843,668.159,0.9695,76.4,-0.032,44.4,0.431,34.1,84.1,105,80.9,4.54,3.36,4.47,534.796,2777.58,12.00,0.029,0.0481,36.5274,6.42,7.62,37.1,32.8,0.805,300,241,94,0.80,0.419,0.0443,0.0443,1.187,1033,1033,15,1,160,0.3,116.8,114.1,34.6,35.9,115,36.5,112,37.8,84.4,40.1,32.9,45.0,4.40,4.40,3.98,-2.78,0.032965,1.54266671,0.222895,5.32176935
277.00,4.167,1029.083,102.473,93.203,4472.734,667.537,0.9693,76.5,0.144,44.3,0.431,34.1,93.5,105,80.8,4.54,3.42,4.47,534.796,2501.00,12.00,0.029,0.0481,36.5274,6.42,5.48,37.1,32.8,0.805,300,242,113,0.89,0.739,0.0443,0.0443,1.187,1034,1034,15,1,123,29.2,113.7,110.9,37.2,38.4,113,37.6,110,38.8,84.3,40.2,32.9,45.0,4.40,4.40,4.62,-3.04,0.032972,1.54550370,0.223010,5.33138409
278.00,4.167,1033.250,102.572,93.067,4468.626,666.914,0.9693,76.5,-0.036,44.2,0.431,34.1,104.4,105,80.7,4.53,3.44,4.46,534.796,2243.19,12.00,0.029,0.0481,36.5274,6.42,4.92,37.1,32.8,0.805,298,240,134,1.01,1.087,0.0444,0.0444,1.187,1033,1033,15,1,114,36.6,111.9,109.1,38.6,39.7,112,38.7,109,39.9,84.2,40.1,32.9,45.0,4.40,4.40,5.19,-3.32,0.032978,1.54833942,0.223133,5.34099951
279.00,4.167,1037.417,102.688,92.967,4464.519,666.292,0.9693,76.4,-0.067,44.1,0.430,34.1,85.8,104,80.6,4.53,3.39,4.45,534.796,2242.89,12.00,0.029,0.0481,36.5274,6.42,4.92,37.1,32.8,0.803,293,236,97,0.83,0.435,0.0444,0.0444,1.187,1033,1033,15,1,114,36.6,110.4,107.7,39.6,40.7,110,39.8,107,41.0,84.2,40.1,32.8,45.0,4.41,4.41,3.83,-2.24,0.032983,1.55117520,0.223256,5.35061602
280.00,4.167,1041.583,102.753,92.935,4460.410,665.670,0.9693,76.4,0.073,44.0,0.430,34.1,87.2,104,80.6,4.53,3.37,4.45,534.805,2502.64,12.00,0.029,0.0481,36.5890,6.42,6.90,37.1,32.8,0.805,301,242,101,0.82,0.522,0.0444,0.0444,1.187,1033,1033,15,1,159,0.7,113.0,110.3,37.4,38.6,111,39.1,108,40.3,84.2,40.1,32.8,45.0,4.41,4.41,4.29,-3.29,0.032988,1.55400998,0.223369,5.36023235
281.00,4.167,1045.750,102.899,92.898,4456.301,665.048,0.9691,76.5,0.033,44.0,0.430,34.1,97.2,104,80.6,4.52,3.43,4.44,534.805,2777.67,12.00,0.029,0.0481,36.5890,6.42,7.62,37.1,32.8,0.805,301,243,120,0.92,0.861,0.0444,0.0444,1.187,1033,1033,15,1,160,0.3,116.7,113.9,34.7,36.0,114,36.6,111,37.9,84.0,40.2,32.8,45.0,4.41,4.41,4.98,-3.50,0.032994,1.55684338,0.223489,5.36984704
282.00,4.167,1049.917,103.063,92.877,4452.194,664.425,0.9690,76.5,0.017,43.9,0.429,34.1,102.0,104,80.6,4.52,3.41,4.43,534.805,2500.94,12.00,0.029,0.0481,36.5890,6.42,5.48,37.1,32.8,0.804,296,238,129,0.99,0.983,0.0444,0.0444,1.188,1034,1034,15,1,123,29.3,113.6,110.7,37.3,38.5,113,37.6,110,38.9,84.0,40.2,32.7,45.0,4.41,4.41,4.86,-3.32,0.033002,1.55967662,0.223617,5.37945986
283.00,4.167,1054.083,103.245,92.848,4448.086,663.803,0.9690,76.4,0.064,43.7,0.429,34.1,81.6,104,80.6,4.52,3.35,4.43,534.805,2243.19,12.00,0.029,0.0481,36.5890,6.42,4.92,37.1,32.8,0.804,302,243,90,0.77,0.332,0.0445,0.0445,1.189,1033,1033,15,1,113,36.7,111.7,108.9,38.6,39.8,112,38.7,109,40.0,83.9,40.2,32.7,45.0,4.41,4.41,3.82,-2.30,0.033008,1.56251055,0.223737,5.38907199
284.00,4.167,1058.250,103.342,92.851,4443.977,663.181,0.9690,76.4,0.206,43.7,0.429,34.1,90.7,104,80.6,4.52,3.37,4.43,534.805,2242.89,12.00,0.029,0.0481,36.5890,6.42,4.92,37.1,32.8,0.804,303,243,108,0.86,0.641,0.0445,0.0445,1.188,1033,1033,15,1,113,36.7,110.2,107.4,39.7,40.8,110,39.9,107,41.1,83.9,40.2,32.7,45.0,4.41,4.41,4.43,-2.56,0.033014,1.56534357,0.223855,5.39868204
285.00,4.167,1062.417,103.545,92.858,4439.869,662.558,0.9689,76.5,-0.021,43.7,0.429,34.1,101.2,104,80.6,4.52,3.43,4.42,534.888,2511.76,12.05,0.029,0.0482,36.6584,6.44,6.94,37.1,32.8,0.804,303,244,129,0.96,0.994,0.0445,0.0445,1.188,1033,1033,15,1,159,0.6,113.0,110.3,37.3,38.5,111,39.0,108,40.2,83.9,40.2,32.6,45.1,4.41,4.41,5.35,-4.04,0.033019,1.56817609,0.223981,5.40828960
286.00,4.167,1066.583,103.760,92.867,4435.762,661.936,0.9688,76.4,-0.090,43.6,0.428,34.1,93.8,104,80.6,4.52,3.37,4.42,534.888,2777.94,12.05,0.029,0.0482,36.6584,6.44,7.60,37.1,32.8,0.803,295,237,112,0.91,0.688,0.0445,0.0445,1.187,1033,1033,15,1,160,0.3,116.5,113.7,34.7,36.0,114,36.6,111,38.0,83.8,40.3,32.6,45.1,4.42,4.42,4.30,-3.08,0.033026,1.57100937,0.224112,5.41789576
287.00,4.167,1070.750,103.870,92.869,4431.653,661.314,0.9687,76.4,-0.042,43.5,0.428,34.1,85.0,104,80.7,4.52,3.32,4.41,534.888,2490.97,12.05,0.029,0.0482,36.6584,6.44,5.42,37.1,32.8,0.804,304,244,97,0.80,0.443,0.0445,0.0445,1.187,1034,1034,15,1,122,29.9,113.3,110.5,37.4,38.6,113,37.7,110,39.0,83.7,40.3,32.6,45.1,4.42,4.42,4.07,-2.63,0.033033,1.57384301,0.224229,5.42750107
288.00,4.167,1074.917,104.096,92.869,4427.545,660.692,0.9687,76.4,0.127,43.5,0.428,34.1,94.5,104,80.7,4.53,3.38,4.41,534.888,2243.14,12.05,0.029,0.0482,36.6584,6.44,4.92,37.1,32.8,0.804,304,244,116,0.89,0.767,0.0445,0.0445,1.187,1033,1033,15,1,113,36.7,111.5,108.6,38.7,39.9,111,38.8,108,40.1,83.7,40.3,32.5,45.1,4.42,4.42,4.74,-2.90,0.033040,1.57667594,0.224352,5.43710456
289.00,4.167,1079.083,104.327,92.855,4423.438,660.069,0.9687,76.5,-0.039,43.4,0.427,34.1,104.1,104,80.7,4.53,3.39,4.41,534.888,2242.89,12.05,0.029,0.0482,36.6584,6.44,4.92,37.1,32.8,0.803,300,241,134,1.00,1.064,0.0446,0.0446,1.186,1033,1033,15,1,113,36.8,110.0,107.3,39.7,40.9,110,40.0,107,41.1,83.7,40.2,32.5,45.1,4.42,4.42,5.09,-3.09,0.033046,1.57950896,0.224484,5.44670620
290.00,4.167,1083.250,104.562,92.854,4419.330,659.447,0.9687,76.4,-0.049,43.3,0.427,34.1,82.3,104,80.7,4.53,3.33,4.40,535.048,2520.91,12.05,0.029,0.0483,36.7016,6.45,6.98,37.1,32.8,0.802,300,241,91,0.77,0.332,0.0446,0.0446,1.185,1033,1033,15,1,159,0.6,113.0,110.3,37.2,38.4,111,39.0,108,40.2,83.6,40.2,32.5,45.1,4.42,4.42,3.89,-3.07,0.033051,1.58234310,0.224611,5.45630772
291.00,4.167,1087.417,104.681,92.854,4415.222,658.825,0.9685,76.4,0.077,43.3,0.427,34.1,88.4,104,80.7,4.53,3.32,4.40,535.048,2778.05,12.05,0.029,0.0483,36.7016,6.45,7.58,37.1,32.8,0.803,305,245,104,0.83,0.558,0.0446,0.0446,1.185,1033,1033,15,1,160,0.3,116.3,113.5,34.8,36.1,114,36.7,111,38.0,83.5,40.3,32.4,45.1,4.42,4.42,4.33,-2.97,0.033057,1.58517685,0.224730,5.46590850
292.00,4.167,1091.583,104.920,92.848,4411.114,658.203,0.9684,76.5,0.022,43.2,0.427,34.1,98.4,104,80.7,4.54,3.39,4.39,535.048,2480.83,12.05,0.029,0.0483,36.7016,6.45,5.36,37.1,32.8,0.804,305,245,124,0.93,0.898,0.0446,0.0446,1.184,1034,1034,15,1,121,30.4,113.1,110.3,37.4,38.7,113,37.7,110,39.1,83.5,40.4,32.4,45.1,4.42,4.42,5.11,-3.34,0.033065,1.58801005,0.224858,5.47550800
293.00,4.167,1095.750,105.155,92.823,4407.007,657.581,0.9684,76.4,0.668,43.2,0.426,34.1,99.7,104,80.7,4.54,3.35,4.39,535.048,2243.10,12.05,0.029,0.0483,36.7016,6.45,4.92,37.1,32.8,0.802,299,240,125,0.96,0.894,0.0446,0.0446,1.183,1033,1033,15,1,113,36.8,111.3,108.5,38.7,40.0,111,38.9,108,40.1,83.4,40.3,32.3,45.1,4.42,4.42,4.67,-2.97,0.033072,1.59084387,0.224991,5.48510683
294.00,4.167,1099.917,105.373,93.054,4402.900,656.958,0.9684,76.4,0.069,42.7,0.423,34.1,82.4,104,80.7,4.50,3.30,4.38,535.048,2242.89,12.05,0.029,0.0483,36.7016,6.45,4.92,37.1,32.8,0.803,306,246,92,0.77,0.355,0.0447,0.0447,1.195,1033,1033,15,1,113,36.8,109.8,107.1,39.8,41.0,110,40.0,107,41.2,83.4,40.3,32.3,45.1,4.43,4.43,3.88,-2.19,0.033077,1.59367881,0.225113,5.49470645
295.00,4.167,1104.083,105.478,93.421,4398.792,656.336,0.9683,76.4,0.168,42.3,0.420,34.1,89.5,105,81.4,4.47,3.31,4.37,535.307,2530.05,12.05,0.029,0.0484,36.7472,6.45,7.02,37.1,32.8,0.803,306,246,106,0.84,0.593,0.0447,0.0447,1.210,1033,1033,15,1,159,0.5,113.0,110.2,37.2,38.4,111,39.0,108,40.2,83.4,40.3,32.3,45.1,4.43,4.43,4.47,-3.44,0.033081,1.59651543,0.225231,5.50430751
296.00,4.167,1108.250,105.661,93.485,4394.685,655.714,0.9681,76.4,0.049,42.1,0.418,34.1,96.8,105,81.7,4.44,3.35,4.36,535.307,2777.96,12.05,0.029,0.0484,36.7472,6.45,7.56,37.1,32.8,0.803,306,246,120,0.91,0.844,0.0447,0.0447,1.217,1033,1033,15,1,160,0.3,116.1,113.3,34.9,36.2,114,36.7,111,38.1,83.3,40.4,32.2,45.1,4.43,4.43,4.98,-3.43,0.033088,1.59935419,0.225354,5.51391127
297.00,4.167,1112.417,105.813,93.316,4390.578,655.092,0.9681,76.4,-0.039,41.9,0.418,34.1,104.4,104,81.5,4.44,3.35,4.35,535.307,2470.55,12.05,0.029,0.0484,36.7472,6.45,5.31,37.1,32.8,0.803,303,243,134,1.00,1.071,0.0447,0.0447,1.217,1034,1034,15,1,121,31.0,112.9,110.1,37.5,38.8,113,37.8,110,39.1,83.2,40.4,32.2,45.1,4.43,4.43,5.26,-3.54,0.033095,1.60219419,0.225480,5.52351805
298.00,4.167,1116.583,105.946,93.109,4386.472,654.470,0.9681,76.4,-0.079,41.8,0.417,34.1,90.5,104,81.4,4.43,3.31,4.34,535.307,2243.07,12.05,0.029,0.0484,36.7472,6.45,4.92,37.1,32.8,0.802,298,239,106,0.87,0.575,0.0448,0.0448,1.216,1033,1033,15,1,113,36.9,111.1,108.3,38.8,40.0,111,39.0,108,40.2,83.2,40.4,32.2,45.1,4.43,4.43,4.12,-2.57,0.033101,1.60503487,0.225606,5.53312866
299.00,4.167,1120.750,106.073,92.962,4382.365,653.848,0.9681,76.4,-0.032,41.7,0.417,34.1,84.4,104,81.2,4.43,3.27,4.33,535.307,2242.89,12.05,0.029,0.0484,36.7472,6.45,4.92,37.1,32.8,0.802,307,246,96,0.79,0.416,0.0448,0.0448,1.215,1033,1033,15,1,113,36.9,109.6,106.8,39.9,41.1,109,40.1,107,41.3,83.2,40.4,32.1,45.1,4.43,4.43,4.04,-2.28,0.033106,1.60787492,0.225723,5.54274220
300.00,4.167,1124.917,106.137,92.900,4378.258,653.225,0.9680,76.4,0.203,41.7,0.417,34.1,91.2,104,81.2,4.43,3.30,4.32,535.638,2539.20,12.05,0.029,0.0484,36.8098,6.45,7.06,37.1,32.8,0.803,307,247,110,0.85,0.647,0.0448,0.0448,1.214,1033,1033,15,1,159,0.5,113.0,110.2,37.1,38.4,111,38.9,108,40.2,83.1,40.4,32.1,45.2,4.43,4.43,4.67,-3.57,0.033111,1.61071351,0.225843,5.55235726
301.00,4.167,1129.083,106.271,92.804,4374.152,652.603,0.9678,76.4,0.005,41.6,0.417,34.1,98.8,104,81.1,4.42,3.35,4.32,535.638,2777.68,12.05,0.029,0.0484,36.8098,6.45,7.54,37.1,32.8,0.803,308,247,124,0.93,0.903,0.0448,0.0448,1.214,1033,1033,15,1,160,0.4,116.0,113.1,35.0,36.3,114,36.8,111,38.2,83.0,40.5,32.1,45.2,4.44,4.44,5.23,-3.60,0.033117,1.61355095,0.225968,5.56197290
302.00,4.167,1133.250,106.402,92.702,4370.047,651.981,0.9677,76.4,-0.035,41.5,0.417,34.1,101.8,104,81.0,4.42,3.32,4.31,535.638,2460.12,12.05,0.029,0.0484,36.8098,6.45,5.25,37.1,32.8,0.802,302,242,129,0.97,0.962,0.0448,0.0448,1.214,1034,1034,15,1,120,31.5,112.7,109.8,37.6,38.9,112,37.9,109,39.2,82.9,40.5,32.0,45.2,4.44,4.44,4.99,-3.35,0.033125,1.61638799,0.226098,5.57158885
303.00,4.167,1137.417,106.525,92.548,4365.942,651.359,0.9677,76.4,-0.049,41.4,0.416,34.1,82.5,104,80.9,4.41,3.27,4.30,535.638,2243.04,12.05,0.029,0.0484,36.8098,6.45,4.92,37.1,32.8,0.801,303,243,92,0.77,0.329,0.0449,0.0449,1.214,1033,1033,15,1,113,36.9,110.9,108.0,38.9,40.1,111,39.0,108,40.3,82.9,40.5,32.0,45.2,4.44,4.44,3.87,-2.33,0.033131,1.61922522,0.226221,5.58120553
304.00,4.167,1141.583,106.583,92.484,4361.836,650.737,0.9677,76.4,0.011,41.4,0.417,34.1,86.1,104,80.8,4.42,3.26,4.30,535.638,2242.89,12.05,0.029,0.0484,36.8098,6.45,4.92,37.1,32.8,0.802,309,248,100,0.80,0.469,0.0449,0.0449,1.212,1033,1033,15,1,113,36.9,109.4,106.6,40.0,41.2,109,40.2,106,41.4,82.9,40.4,32.0,45.2,4.44,4.44,4.21,-2.38,0.033136,1.62206181,0.226340,5.59082215
305.00,4.167,1145.750,106.696,92.352,4357.731,650.115,0.9676,76.4,0.127,41.4,0.416,34.1,93.1,103,80.7,4.41,3.30,4.29,536.058,2548.38,12.05,0.029,0.0485,36.8727,6.46,7.10,37.1,32.8,0.802,309,248,113,0.87,0.705,0.0449,0.0449,1.211,1033,1033,15,1,159,0.5,112.9,110.2,37.1,38.3,111,38.9,108,40.2,82.8,40.5,31.9,45.2,4.44,4.44,4.88,-3.71,0.033142,1.62489766,0.226463,5.60043835
306.00,4.167,1149.917,106.803,92.219,4353.627,649.493,0.9674,76.4,-0.021,41.3,0.416,34.1,100.9,103,80.6,4.41,3.33,4.29,536.058,2777.24,12.05,0.029,0.0485,36.8727,6.46,7.52,37.1,32.8,0.802,309,248,129,0.95,0.961,0.0449,0.0449,1.210,1033,1033,15,1,159,0.4,115.8,113.0,35.0,36.3,113,36.9,110,38.3,82.7,40.6,31.9,45.2,4.44,4.44,5.43,-3.78,0.033148,1.62773314,0.226591,5.61005400
307.00,4.167,1154.083,106.907,92.079,4349.524,648.871,0.9674,76.4,0.089,41.2,0.416,34.1,96.6,103,80.5,4.41,3.28,4.28,536.058,2449.49,12.05,0.029,0.0485,36.8727,6.46,5.19,37.1,32.8,0.801,302,242,119,0.93,0.768,0.0449,0.0449,1.208,1034,1034,15,1,119,32.1,112.5,109.6,37.7,39.0,112,38.0,109,39.3,82.6,40.6,31.9,45.2,4.44,4.44,4.61,-3.08,0.033156,1.63056894,0.226721,5.61966988
308.00,4.167,1158.250,107.007,91.921,4345.421,648.249,0.9674,76.4,0.069,41.2,0.416,34.1,81.3,103,80.4,4.40,3.24,4.28,536.058,2243.01,12.05,0.029,0.0485,36.8727,6.46,4.92,37.1,32.8,0.801,310,248,90,0.75,0.303,0.0450,0.0450,1.208,1033,1033,15,1,113,37.0,110.7,107.8,39.0,40.2,111,39.1,108,40.4,82.6,40.6,31.8,45.2,4.44,4.44,3.94,-2.32,0.033163,1.63340500,0.226842,5.62928631
309.00,4.167,1162.417,107.056,91.853,4341.317,647.626,0.9674,76.4,0.168,41.2,0.416,34.1,87.8,103,80.3,4.41,3.25,4.27,536.058,2242.89,12.05,0.029,0.0485,36.8727,6.46,4.92,37.1,32.8,0.802,310,249,103,0.82,0.519,0.0450,0.0450,1.206,1033,1033,15,1,113,37.0,109.2,106.4,40.1,41.2,109,40.3,106,41.5,82.6,40.5,31.8,45.2,4.45,4.45,4.39,-2.48,0.033168,1.63624040,0.226963,5.63890254
310.00,4.167,1166.583,107.151,91.715,4337.215,647.004,0.9673,76.4,0.072,41.1,0.416,34.1,95.0,103,80.2,4.40,3.30,4.27,536.596,2557.60,12.05,0.029,0.0486,36.9294,6.47,7.15,37.1,32.8,0.802,311,249,117,0.89,0.761,0.0450,0.0450,1.205,1033,1033,15,1,159,0.4,112.9,110.1,37.0,38.3,111,38.9,108,40.1,82.5,40.5,31.8,45.2,4.45,4.45,5.12,-3.87,0.033174,1.63907532,0.227089,5.64851857
311.00,4.167,1170.750,107.245,91.579,4333.113,646.382,0.9671,76.4,-0.029,41.0,0.416,34.1,102.4,102,80.1,4.40,3.30,4.26,536.596,2776.63,12.05,0.029,0.0486,36.9294,6.47,7.50,37.1,32.8,0.801,307,246,131,0.97,0.983,0.0450,0.0450,1.204,1033,1033,15,1,159,0.5,115.6,112.8,35.1,36.4,113,36.9,110,38.3,82.4,40.6,31.7,45.2,4.45,4.45,5.35,-3.76,0.033181,1.64191013,0.227219,5.65813439
312.00,4.167,1174.917,107.338,91.437,4329.012,645.760,0.9670,76.4,-0.090,41.0,0.416,34.1,88.9,102,79.9,4.40,3.25,4.26,536.596,2438.67,12.05,0.028,0.0486,36.9294,6.47,5.13,37.1,32.8,0.800,302,242,104,0.85,0.502,0.0450,0.0450,1.203,1034,1034,15,1,118,32.6,112.3,109.4,37.8,39.1,112,38.0,109,39.4,82.4,40.7,31.7,45.2,4.45,4.45,4.20,-2.76,0.033189,1.64474550,0.227347,5.66775101
313.00,4.167,1179.083,107.430,91.280,4324.911,645.138,0.9670,76.4,-0.032,40.9,0.415,34.1,82.9,102,79.8,4.39,3.21,4.25,536.596,2242.99,12.05,0.029,0.0486,36.9294,6.47,4.92,37.1,32.8,0.801,312,250,94,0.77,0.347,0.0450,0.0450,1.202,1033,1033,15,1,112,37.0,110.5,107.6,39.1,40.3,110,39.2,107,40.5,82.4,40.6,31.7,45.2,4.45,4.45,4.10,-2.42,0.033195,1.64758089,0.227467,5.67736824
314.00,4.167,1183.250,107.475,91.208,4320.810,644.516,0.9671,76.4,0.212,40.9,0.415,34.1,89.5,102,79.7,4.39,3.25,4.25,536.596,2242.89,12.05,0.029,0.0486,36.9294,6.47,4.92,37.1,32.8,0.801,312,250,107,0.84,0.571,0.0451,0.0451,1.201,1033,1033,15,1,112,37.0,109.0,106.2,40.2,41.3,109,40.4,106,41.6,82.4,40.6,31.6,45.3,4.45,4.45,4.58,-2.59,0.033201,1.65041565,0.227590,5.68698545
315.00,4.167,1187.417,107.566,91.066,4316.710,643.894,0.9670,76.4,0.021,40.8,0.415,34.1,96.9,102,79.6,4.39,3.30,4.24,537.262,2575.40,12.10,0.029,0.0487,36.9814,6.50,7.22,37.1,32.8,0.801,312,250,121,0.91,0.818,0.0451,0.0451,1.200,1033,1033,15,1,159,0.4,113.1,110.3,36.8,38.1,111,38.7,108,40.0,82.3,40.6,31.6,45.3,4.45,4.45,5.36,-4.06,0.033206,1.65325009,0.227717,5.69660261
316.00,4.167,1191.583,107.657,90.927,4312.611,643.272,0.9668,76.4,-0.088,40.8,0.415,34.1,99.8,102,79.5,4.39,3.27,4.24,537.262,2774.09,12.10,0.028,0.0487,36.9814,6.50,7.44,37.1,32.8,0.800,307,245,126,0.95,0.874,0.0451,0.0451,1.199,1033,1033,15,1,159,0.7,115.4,112.6,35.2,36.5,113,37.0,110,38.4,82.2,40.7,31.6,45.3,4.46,4.46,5.08,-3.58,0.033213,1.65608472,0.227848,5.70622009
317.00,4.167,1195.750,107.748,90.782,4308.511,642.650,0.9667,76.3,-0.048,40.7,0.415,34.1,80.9,102,79.4,4.39,3.22,4.23,537.262,2417.29,12.10,0.028,0.0487,36.9814,6.50,5.01,37.1,32.8,0.800,308,246,89,0.76,0.258,0.0451,0.0451,1.197,1034,1034,15,1,117,33.4,112.1,109.2,37.9,39.2,112,38.1,109,39.4,82.1,40.7,31.5,45.3,4.46,4.46,3.93,-2.50,0.033221,1.65891991,0.227973,5.71583864
