Time(s),TotalHemorrhageRate(mL/s),TotalHemorrhagedVolume(mL),HeartRate(1/min),MeanArterialPressure(mmHg),BloodVolume(mL),HemoglobinContent(g),OxygenSaturation,Patient-Weight(kg),ECG-Lead3ElectricPotential(mV),HeartStrokeVolume(mL),HeartEjectionFraction,ExtravascularFluidVolume(L),ArterialPressure(mmHg),SystolicArterialPressure(mmHg),DiastolicArterialPressure(mmHg),CardiacOutput(L/min),CentralVenousPressure(mmHg),PulmonaryCapillariesWedgePressure(mmHg),TidalVolume(mL),TotalLungVolume(mL),RespirationRate(1/min),CarbonDioxideSaturation,EndTidalCarbonDioxideFraction,EndTidalCarbonDioxidePressure(mmHg),TotalAlveolarVentilation(L/min),TranspulmonaryPressure(cmH2O),CoreTemperature(degC),SkinTemperature(degC),RespiratoryExchangeRatio,OxygenConsumptionRate(mL/min),CarbonDioxideProductionRate(mL/min),GlomerularFiltrationRate(mL/min),RenalBloodFlow(L/min),UrineProductionRate(mL/min),LeftAfferentArterioleResistance(mmHg_min/mL),RightAfferentArterioleResistance(mmHg_min/mL),SystemicVascularResistance(mmHg_s/mL),LeftAlveoli-Pressure(cmH2O),RightAlveoli-Pressure(cmH2O),Pericardium-Volume(mL),Pericardium-Pressure(mmHg),Carina-Oxygen-PartialPressure(mmHg),Carina-CarbonDioxide-PartialPressure(mmHg),LeftLungPulmonary-Oxygen-PartialPressure(mmHg),RightLungPulmonary-Oxygen-PartialPressure(mmHg),LeftLungPulmonary-CarbonDioxide-PartialPressure(mmHg),RightLungPulmonary-CarbonDioxide-PartialPressure(mmHg),LeftAlveoli-Oxygen-PartialPressure(mmHg),LeftAlveoli-CarbonDioxide-PartialPressure(mmHg),RightAlveoli-Oxygen-PartialPressure(mmHg),RightAlveoli-CarbonDioxide-PartialPressure(mmHg),Aorta-Oxygen-PartialPressure(mmHg),Aorta-CarbonDioxide-PartialPressure(mmHg),VenaCava-Oxygen-PartialPressure(mmHg),VenaCava-CarbonDioxide-PartialPressure(mmHg),RightTubules-Sodium-Concentration(g/L),LeftTubules-Sodium-Concentration(g/L),Oxygen-AlveolarTransfer(mL/s),CarbonDioxide-AlveolarTransfer(mL/s),Epinephrine-BloodConcentration(ug/L),Epinephrine-SystemicMassCleared(ug),Norepinephrine-BloodConcentration(ug/L),Norepinephrine-SystemicMassCleared(ug)
0.00,0,0,72.000,95.323,5488.939,821.464,0.9741,77.1,-0.010,80.4,0.566,34.1,106.6,114,73.6,5.79,4.80,6.46,535.260,2355.33,12.00,0.029,0.0476,36.1797,6.42,6.15,37.0,32.9,0.820,252,207,123,1.17,1.345,0.0423,0.0423,0.940,1033,1033,15,1,151,7.1,112.0,109.3,38.8,39.7,111,39.7,108,40.6,89.0,39.4,38.2,44.3,4.03,4.03,5.00,-3.63,0.032221,0.76050182,0.198656,2.67364139
1.00,0,0,72.002,95.325,5488.978,821.464,0.9741,77.0,0.161,80.4,0.566,34.1,93.2,114,73.6,5.79,4.72,6.46,535.260,2742.08,12.00,0.029,0.0476,36.1797,6.42,7.73,37.0,32.9,0.820,252,206,98,1.02,0.874,0.0423,0.0423,0.940,1033,1033,15,1,160,0.3,117.6,114.8,34.5,35.6,115,36.3,112,37.5,89.0,39.5,38.2,44.3,4.03,4.03,4.33,-3.83,0.032222,0.76334229,0.198683,2.68322370
2.00,0,0,72.004,95.331,5489.018,821.464,0.9740,77.0,-0.006,80.4,0.566,34.1,81.9,114,73.6,5.79,4.64,6.46,535.260,2643.54,12.00,0.029,0.0476,36.1797,6.42,6.35,37.0,32.9,0.819,251,205,78,0.88,0.477,0.0423,0.0423,0.940,1034,1034,15,1,139,16.8,115.8,113.0,36.1,37.1,115,36.9,112,38.0,88.9,39.5,38.2,44.3,4.03,4.03,3.67,-2.66,0.032224,0.76618227,0.198720,2.69280623
3.00,0,0,72.008,95.332,5489.060,821.464,0.9740,77.0,0.041,80.4,0.566,34.1,76.1,114,73.6,5.79,4.65,6.46,535.260,2247.81,12.00,0.029,0.0476,36.1797,6.42,4.87,37.0,32.9,0.817,248,203,67,0.83,0.246,0.0423,0.0423,0.940,1033,1033,15,1,115,36.2,113.6,110.7,37.8,38.9,113,37.9,111,39.0,89.0,39.5,38.2,44.3,4.03,4.03,3.20,-2.17,0.032227,0.76902121,0.198764,2.70238952
4.00,0,0,72.009,95.318,5489.100,821.464,0.9741,77.1,0.214,80.3,0.566,34.1,111.0,114,73.6,5.79,4.72,6.46,535.260,2242.89,12.00,0.029,0.0476,36.1797,6.42,4.92,37.0,32.9,0.818,250,204,130,1.25,1.438,0.0423,0.0423,0.940,1033,1033,15,1,115,36.2,112.2,109.4,38.8,39.8,112,39.0,109,40.0,89.0,39.4,38.2,44.3,4.03,4.03,4.38,-2.96,0.032228,0.77185945,0.198796,2.71197419
5.00,0,0,72.011,95.320,5489.138,821.464,0.9741,77.1,-0.024,80.4,0.566,34.1,110.4,114,73.6,5.79,4.78,6.46,534.866,2355.32,12.00,0.029,0.0476,36.2013,6.42,6.15,37.0,32.9,0.820,252,207,130,1.22,1.470,0.0423,0.0423,0.940,1033,1033,15,1,151,7.1,112.0,109.3,38.8,39.8,111,39.7,108,40.6,89.0,39.4,38.2,44.3,4.03,4.03,5.10,-3.74,0.032227,0.77469907,0.198814,2.72156180
6.00,0,0,72.012,95.322,5489.177,821.464,0.9741,77.1,0.098,80.4,0.566,34.1,96.3,114,73.6,5.79,4.75,6.46,534.866,2741.94,12.00,0.029,0.0476,36.2013,6.42,7.73,37.0,32.9,0.820,252,207,104,1.05,0.984,0.0423,0.0423,0.940,1033,1033,15,1,160,0.3,117.6,114.8,34.5,35.6,115,36.3,112,37.5,89.0,39.5,38.2,44.3,4.03,4.03,4.52,-3.97,0.032228,0.77753983,0.198838,2.73115146
7.00,0,0,72.013,95.328,5489.217,821.464,0.9740,77.0,0.098,80.4,0.566,34.1,84.5,114,73.6,5.79,4.65,6.46,534.866,2643.24,12.00,0.029,0.0476,36.2013,6.42,6.35,37.0,32.9,0.819,251,206,83,0.91,0.568,0.0423,0.0423,0.939,1034,1034,15,1,139,16.9,115.8,113.0,36.1,37.2,115,36.9,112,38.1,89.0,39.6,38.2,44.3,4.04,4.04,3.80,-2.76,0.032230,0.78038030,0.198873,2.74074125
8.00,0,0,72.016,95.331,5489.258,821.464,0.9740,77.0,0.017,80.4,0.566,34.1,74.6,114,73.6,5.79,4.63,6.46,534.866,2247.79,12.00,0.029,0.0476,36.2013,6.42,4.87,37.0,32.9,0.818,250,205,65,0.80,0.224,0.0423,0.0423,0.939,1033,1033,15,1,115,36.2,113.6,110.7,37.9,38.9,113,38.0,111,39.0,89.0,39.6,38.2,44.3,4.04,4.04,3.29,-2.21,0.032233,0.78321991,0.198916,2.75033185
9.00,0,0,72.017,95.319,5489.298,821.464,0.9741,77.1,-0.090,80.3,0.566,34.1,105.9,114,73.6,5.79,4.70,6.46,534.866,2242.89,12.00,0.029,0.0476,36.2013,6.42,4.92,37.0,32.9,0.817,249,203,120,1.19,1.243,0.0423,0.0423,0.940,1033,1033,15,1,115,36.3,112.2,109.4,38.9,39.8,112,39.0,109,40.0,89.0,39.5,38.2,44.3,4.04,4.04,4.00,-2.70,0.032234,0.78605845,0.198955,2.75992343
10.00,0,0,72.018,95.320,5489.337,821.464,0.9741,77.1,-0.029,80.4,0.566,34.1,113.6,114,73.6,5.79,4.77,6.46,534.667,2355.32,12.00,0.029,0.0477,36.2227,6.42,6.15,37.0,32.9,0.819,252,206,135,1.26,1.563,0.0423,0.0423,0.939,1033,1033,15,1,151,7.1,112.0,109.3,38.8,39.8,111,39.7,108,40.7,89.1,39.5,38.2,44.3,4.04,4.04,5.07,-3.75,0.032234,0.78889800,0.198974,2.76951778
11.00,0,0,72.019,95.322,5489.375,821.464,0.9740,77.1,0.043,80.4,0.566,34.1,99.6,114,73.6,5.79,4.78,6.46,534.667,2741.96,12.00,0.029,0.0477,36.2227,6.42,7.73,37.0,32.9,0.820,252,207,110,1.09,1.099,0.0423,0.0423,0.939,1033,1033,15,1,160,0.3,117.7,114.9,34.5,35.6,115,36.4,112,37.5,89.0,39.5,38.2,44.3,4.04,4.04,4.72,-4.12,0.032235,0.79173898,0.198996,2.77911465
12.00,0,0,72.020,95.328,5489.415,821.464,0.9740,77.0,0.205,80.4,0.566,34.1,87.3,114,73.6,5.79,4.67,6.46,534.667,2643.24,12.00,0.029,0.0477,36.2227,6.42,6.35,37.0,32.9,0.819,251,206,88,0.95,0.665,0.0423,0.0423,0.939,1034,1034,15,1,139,16.9,115.8,113.1,36.1,37.2,115,36.9,112,38.1,89.0,39.6,38.2,44.3,4.04,4.04,3.94,-2.86,0.032237,0.79457994,0.199029,2.78871183
13.00,0,0,72.022,95.331,5489.456,821.464,0.9740,77.0,-0.032,80.4,0.566,34.1,76.9,114,73.6,5.79,4.62,6.46,534.667,2247.79,12.00,0.029,0.0477,36.2227,6.42,4.87,37.0,32.9,0.818,250,205,69,0.83,0.303,0.0423,0.0423,0.939,1033,1033,15,1,115,36.2,113.6,110.7,37.9,38.9,113,38.0,111,39.1,89.0,39.6,38.2,44.3,4.04,4.04,3.40,-2.29,0.032240,0.79742021,0.199070,2.79830975
14.00,0,0,72.022,95.320,5489.497,821.464,0.9741,77.0,-0.073,80.3,0.566,34.1,97.5,114,73.6,5.79,4.68,6.46,534.667,2242.89,12.00,0.029,0.0477,36.2227,6.42,4.92,37.0,32.9,0.816,247,202,105,1.10,0.939,0.0423,0.0423,0.940,1033,1033,15,1,115,36.3,112.3,109.5,38.9,39.9,112,39.1,109,40.1,89.0,39.5,38.2,44.3,4.04,4.04,3.60,-2.40,0.032242,0.80025926,0.199114,2.80790843
15.00,0,0,72.023,95.321,5489.536,821.464,0.9741,77.1,-0.041,80.4,0.566,34.1,114.3,114,73.6,5.79,4.75,6.46,534.684,2355.33,12.00,0.029,0.0477,36.2435,6.42,6.15,37.0,32.9,0.819,251,206,136,1.27,1.576,0.0423,0.0423,0.939,1033,1033,15,1,151,7.1,112.1,109.3,38.9,39.8,111,39.7,108,40.7,89.1,39.5,38.2,44.3,4.04,4.04,4.94,-3.69,0.032242,0.80309879,0.199135,2.81750952
16.00,0,0,72.023,95.322,5489.574,821.464,0.9740,77.1,0.021,80.4,0.566,34.1,103.0,114,73.6,5.79,4.81,6.46,534.684,2742.01,12.00,0.029,0.0477,36.2435,6.42,7.73,37.0,32.9,0.820,252,207,116,1.13,1.219,0.0423,0.0423,0.939,1033,1033,15,1,160,0.3,117.7,114.9,34.5,35.6,115,36.4,112,37.6,89.0,39.6,38.2,44.3,4.04,4.04,4.93,-4.29,0.032242,0.80593986,0.199156,2.82711339
17.00,0,0,72.024,95.328,5489.613,821.464,0.9740,77.0,0.205,80.4,0.566,34.1,90.1,114,73.6,5.79,4.69,6.46,534.684,2643.24,12.00,0.029,0.0477,36.2435,6.42,6.35,37.0,32.9,0.819,252,206,93,0.98,0.765,0.0423,0.0423,0.939,1034,1034,15,1,139,16.9,115.8,113.1,36.2,37.2,115,37.0,112,38.1,89.0,39.6,38.2,44.3,4.04,4.04,4.09,-2.97,0.032245,0.80878132,0.199186,2.83671813
18.00,0,0,72.025,95.331,5489.654,821.464,0.9740,77.0,-0.039,80.4,0.566,34.1,79.4,114,73.6,5.79,4.63,6.46,534.684,2247.79,12.00,0.029,0.0477,36.2435,6.42,4.87,37.0,32.9,0.819,251,205,74,0.85,0.387,0.0423,0.0423,0.939,1033,1033,15,1,115,36.2,113.6,110.7,37.9,39.0,113,38.0,111,39.1,89.0,39.6,38.2,44.3,4.04,4.04,3.52,-2.38,0.032248,0.81162221,0.199226,2.84632337
19.00,0,0,72.025,95.322,5489.696,821.464,0.9740,77.0,-0.048,80.3,0.566,34.1,86.5,114,73.6,5.79,4.67,6.46,534.684,2242.89,12.00,0.029,0.0477,36.2435,6.42,4.92,37.0,32.9,0.816,247,202,85,0.97,0.560,0.0423,0.0423,0.939,1033,1033,15,1,115,36.3,112.2,109.5,38.9,39.9,112,39.1,109,40.1,89.1,39.5,38.2,44.3,4.05,4.05,3.30,-2.14,0.032250,0.81446192,0.199272,2.85592931
20.00,0,0,72.025,95.321,5489.734,821.464,0.9741,77.1,0.017,80.4,0.566,34.1,113.5,114,73.6,5.79,4.73,6.46,534.727,2355.35,12.00,0.029,0.0477,36.2626,6.42,6.15,37.0,32.9,0.818,250,205,135,1.27,1.538,0.0423,0.0423,0.939,1033,1033,15,1,151,7.1,112.1,109.4,38.9,39.8,111,39.7,108,40.7,89.1,39.5,38.2,44.3,4.05,4.05,4.72,-3.57,0.032250,0.81730149,0.199298,2.86553718
21.00,0,0,72.026,95.326,5489.773,821.464,0.9740,77.1,-0.010,80.4,0.566,34.1,106.6,114,73.6,5.79,4.80,6.46,534.727,2742.07,12.00,0.029,0.0477,36.2626,6.42,7.73,37.0,32.9,0.820,252,207,123,1.17,1.342,0.0423,0.0423,0.939,1033,1033,15,1,160,0.3,117.7,114.9,34.5,35.7,115,36.4,112,37.6,89.0,39.6,38.2,44.3,4.05,4.05,5.13,-4.46,0.032251,0.82014260,0.199317,2.87514798
22.00,0,0,72.026,95.330,5489.812,821.464,0.9740,77.0,0.161,80.4,0.566,34.1,93.2,114,73.6,5.79,4.72,6.46,534.727,2643.24,12.00,0.029,0.0477,36.2626,6.42,6.35,37.0,32.9,0.820,252,206,99,1.02,0.870,0.0423,0.0423,0.939,1034,1034,15,1,139,16.9,115.8,113.1,36.2,37.2,115,37.0,112,38.1,89.0,39.6,38.2,44.3,4.05,4.05,4.25,-3.08,0.032253,0.82298449,0.199345,2.88476028
23.00,0,0,72.026,95.331,5489.852,821.464,0.9740,77.0,-0.006,80.4,0.566,34.1,81.9,114,73.6,5.79,4.64,6.46,534.727,2247.78,12.00,0.029,0.0477,36.2626,6.42,4.87,37.0,32.9,0.819,251,205,78,0.88,0.474,0.0423,0.0423,0.939,1033,1033,15,1,115,36.3,113.6,110.7,37.9,39.0,113,38.0,111,39.1,89.0,39.6,38.2,44.3,4.05,4.05,3.65,-2.46,0.032256,0.82582596,0.199383,2.89437286
24.00,0,0,72.026,95.322,5489.894,821.464,0.9740,77.0,0.041,80.4,0.566,34.1,76.1,114,73.6,5.79,4.65,6.46,534.727,2242.89,12.00,0.029,0.0477,36.2626,6.42,4.92,37.0,32.9,0.817,248,203,67,0.83,0.244,0.0423,0.0423,0.939,1033,1033,15,1,115,36.3,112.2,109.5,38.9,39.9,112,39.1,109,40.1,89.1,39.6,38.2,44.3,4.05,4.05,3.19,-2.02,0.032258,0.82866638,0.199428,2.90398618
25.00,0,0,72.026,95.321,5489.933,821.464,0.9741,77.1,0.214,80.4,0.566,34.1,111.0,114,73.6,5.79,4.72,6.46,534.776,2355.36,12.00,0.029,0.0477,36.2807,6.42,6.15,37.0,32.9,0.818,250,204,130,1.25,1.434,0.0423,0.0423,0.939,1033,1033,15,1,151,7.1,112.1,109.4,38.9,39.8,111,39.7,108,40.7,89.1,39.6,38.2,44.3,4.05,4.05,4.41,-3.37,0.032258,0.83150610,0.199461,2.91360092
26.00,0,0,72.026,95.326,5489.971,821.464,0.9740,77.1,-0.024,80.4,0.566,34.1,110.4,114,73.6,5.79,4.79,6.46,534.776,2742.13,12.00,0.029,0.0477,36.2807,6.42,7.73,37.0,32.9,0.820,252,207,130,1.22,1.467,0.0423,0.0423,0.939,1033,1033,15,1,160,0.3,117.7,114.9,34.5,35.7,115,36.4,112,37.6,89.0,39.6,38.2,44.3,4.05,4.05,5.25,-4.60,0.032259,0.83434718,0.199480,2.92321862
27.00,0,0,72.026,95.329,5490.010,821.464,0.9739,77.1,0.098,80.4,0.566,34.1,96.3,114,73.6,5.79,4.75,6.46,534.776,2643.24,12.00,0.029,0.0477,36.2807,6.42,6.35,37.0,32.9,0.820,252,207,104,1.05,0.981,0.0423,0.0423,0.939,1034,1034,15,1,139,16.9,115.9,113.1,36.2,37.3,115,37.0,112,38.2,89.0,39.7,38.2,44.3,4.05,4.05,4.43,-3.21,0.032261,0.83718941,0.199506,2.93283839
28.00,0,0,72.026,95.331,5490.051,821.464,0.9740,77.0,0.098,80.4,0.566,34.1,84.5,114,73.6,5.79,4.65,6.46,534.776,2247.77,12.00,0.029,0.0477,36.2807,6.42,4.87,37.0,32.9,0.819,251,206,83,0.91,0.566,0.0423,0.0423,0.939,1033,1033,15,1,115,36.3,113.6,110.7,38.0,39.0,113,38.1,111,39.2,89.0,39.6,38.2,44.3,4.06,4.06,3.78,-2.56,0.032264,0.84003138,0.199541,2.94245832
29.00,0,0,72.025,95.323,5490.092,821.464,0.9740,77.0,0.017,80.4,0.566,34.1,74.6,114,73.6,5.79,4.63,6.46,534.776,2242.89,12.00,0.029,0.0477,36.2807,6.42,4.92,37.0,32.9,0.818,250,205,65,0.80,0.222,0.0423,0.0423,0.939,1033,1033,15,1,115,36.3,112.2,109.4,39.0,40.0,112,39.1,109,40.2,89.1,39.6,38.2,44.3,4.06,4.06,3.28,-2.07,0.032266,0.84287251,0.199585,2.95207905
30.00,0,0,72.025,95.322,5490.132,821.464,0.9741,77.1,-0.090,80.4,0.566,34.1,105.9,114,73.6,5.79,4.70,6.46,534.832,2355.38,12.00,0.029,0.0478,36.2986,6.42,6.15,37.0,32.9,0.817,249,203,120,1.19,1.239,0.0423,0.0423,0.939,1033,1033,15,1,151,7.1,112.1,109.4,38.9,39.9,111,39.8,108,40.7,89.1,39.6,38.2,44.3,4.06,4.06,4.03,-3.12,0.032267,0.84571255,0.199625,2.96170078
31.00,2.333,2.287,72.024,95.326,5487.837,821.115,0.9740,77.1,-0.029,80.4,0.566,34.1,113.6,114,73.6,5.79,4.76,6.46,534.832,2742.20,12.00,0.029,0.0478,36.2986,6.42,7.73,37.0,32.9,0.819,252,206,135,1.26,1.559,0.0423,0.0423,0.939,1033,1033,15,1,160,0.3,117.7,114.9,34.5,35.7,115,36.4,112,37.6,89.1,39.6,38.2,44.3,4.06,4.06,5.23,-4.62,0.032267,0.84855357,0.199639,2.97132525
32.00,2.333,4.620,72.024,95.324,5485.542,820.765,0.9739,77.1,0.043,80.4,0.566,34.1,99.6,114,73.6,5.79,4.77,6.46,534.832,2643.23,12.00,0.029,0.0478,36.2986,6.42,6.35,37.0,32.9,0.820,252,207,110,1.09,1.095,0.0423,0.0423,0.939,1034,1034,15,1,139,16.9,115.9,113.1,36.2,37.3,115,37.0,112,38.2,89.0,39.7,38.2,44.3,4.06,4.06,4.63,-3.36,0.032270,0.85139601,0.199656,2.98095201
33.00,2.333,6.953,72.024,95.318,5483.249,820.416,0.9740,77.0,0.205,80.4,0.566,34.1,87.2,114,73.6,5.79,4.66,6.46,534.832,2247.77,12.00,0.029,0.0478,36.2986,6.42,4.87,37.0,32.9,0.819,251,206,88,0.95,0.660,0.0423,0.0423,0.939,1033,1033,15,1,115,36.3,113.6,110.7,38.0,39.1,113,38.1,111,39.2,89.0,39.7,38.2,44.3,4.06,4.06,3.92,-2.65,0.032272,0.85423844,0.199684,2.99057864
34.00,2.333,9.287,72.025,95.290,5480.957,820.066,0.9740,77.0,-0.032,80.4,0.566,34.1,76.9,114,73.6,5.79,4.61,6.46,534.832,2242.89,12.00,0.029,0.0478,36.2986,6.42,4.92,37.0,32.9,0.818,250,205,69,0.83,0.298,0.0423,0.0423,0.939,1033,1033,15,1,115,36.4,112.2,109.4,39.0,40.0,112,39.2,109,40.2,89.1,39.6,38.2,44.3,4.06,4.06,3.39,-2.14,0.032274,0.85708013,0.199721,3.00020525
35.00,2.333,11.620,72.026,95.275,5478.664,819.717,0.9741,77.0,-0.073,80.4,0.566,34.1,97.5,114,73.5,5.79,4.67,6.46,534.892,2364.45,12.05,0.029,0.0478,36.3159,6.44,6.21,37.0,32.9,0.816,247,202,105,1.10,0.933,0.0423,0.0423,0.939,1033,1033,15,1,152,6.0,112.3,109.5,38.8,39.8,111,39.7,108,40.7,89.1,39.6,38.2,44.3,4.06,4.06,3.64,-2.89,0.032275,0.85992049,0.199760,3.00983170
36.00,2.333,13.953,72.029,95.266,5476.370,819.368,0.9740,77.1,-0.041,80.3,0.566,34.1,114.2,114,73.5,5.79,4.73,6.45,534.892,2746.27,12.05,0.029,0.0478,36.3159,6.44,7.74,37.0,32.9,0.819,251,206,136,1.27,1.567,0.0423,0.0423,0.939,1033,1033,15,1,160,0.3,117.8,115.0,34.5,35.6,116,36.4,113,37.6,89.1,39.7,38.2,44.3,4.07,4.07,5.09,-4.52,0.032276,0.86276117,0.199778,3.01945939
37.00,2.333,16.287,72.033,95.254,5474.075,819.018,0.9739,77.1,0.021,80.3,0.566,34.1,102.9,114,73.5,5.79,4.79,6.45,534.892,2635.43,12.05,0.029,0.0478,36.3159,6.44,6.30,37.1,32.9,0.820,252,207,117,1.13,1.210,0.0423,0.0423,0.939,1034,1034,15,1,138,17.9,115.8,113.0,36.3,37.3,115,37.0,112,38.2,89.0,39.7,38.2,44.3,4.07,4.07,4.82,-3.52,0.032278,0.86560328,0.199795,3.02908849
38.00,2.333,18.620,72.040,95.242,5471.781,818.669,0.9740,77.0,0.205,80.3,0.566,34.1,90.0,114,73.5,5.79,4.67,6.45,534.892,2246.98,12.05,0.029,0.0478,36.3159,6.44,4.88,37.1,32.9,0.819,252,206,93,0.98,0.757,0.0423,0.0423,0.939,1033,1033,15,1,115,36.3,113.6,110.7,38.0,39.1,113,38.1,111,39.2,89.1,39.7,38.1,44.3,4.07,4.07,4.05,-2.74,0.032281,0.86844566,0.199823,3.03871688
39.00,2.333,20.953,72.048,95.230,5469.489,818.320,0.9740,77.0,-0.039,80.3,0.566,34.1,79.3,114,73.5,5.78,4.60,6.45,534.892,2242.89,12.05,0.029,0.0478,36.3159,6.44,4.92,37.1,32.9,0.819,251,205,74,0.85,0.379,0.0423,0.0423,0.939,1033,1033,15,1,115,36.4,112.2,109.5,39.0,40.0,112,39.2,109,40.2,89.1,39.6,38.1,44.3,4.07,4.07,3.50,-2.22,0.032282,0.87128731,0.199860,3.04834394
40.00,2.333,23.287,72.071,95.200,5467.197,817.970,0.9741,77.0,-0.048,80.2,0.565,34.1,86.3,114,73.5,5.78,4.64,6.45,534.955,2373.60,12.05,0.029,0.0478,36.3126,6.45,6.26,37.1,32.9,0.816,247,202,85,0.97,0.551,0.0423,0.0423,0.940,1033,1033,15,1,154,5.1,112.4,109.7,38.7,39.7,111,39.7,108,40.7,89.1,39.6,38.1,44.3,4.07,4.07,3.34,-2.70,0.032284,0.87412758,0.199904,3.05796974
41.00,2.333,25.620,72.086,95.195,5464.903,817.621,0.9740,77.1,0.017,80.2,0.565,34.1,113.3,114,73.5,5.78,4.70,6.44,534.955,2750.11,12.05,0.029,0.0478,36.3126,6.45,7.74,37.1,32.9,0.818,250,205,135,1.27,1.524,0.0423,0.0423,0.940,1033,1033,15,1,160,0.3,117.9,115.1,34.5,35.6,116,36.3,113,37.5,89.1,39.7,38.1,44.3,4.07,4.07,4.87,-4.34,0.032284,0.87696749,0.199929,3.06759534
42.00,2.333,27.953,72.104,95.190,5462.607,817.271,0.9740,77.1,-0.010,80.2,0.565,34.1,106.5,114,73.5,5.78,4.77,6.44,534.955,2627.46,12.05,0.029,0.0478,36.3126,6.45,6.24,37.1,32.9,0.820,252,207,123,1.17,1.328,0.0423,0.0423,0.940,1034,1034,15,1,137,18.8,115.8,113.0,36.3,37.4,115,37.0,112,38.2,89.1,39.7,38.1,44.3,4.07,4.07,5.01,-3.69,0.032286,0.87980877,0.199947,3.07722163
43.00,2.333,30.287,72.124,95.184,5460.313,816.922,0.9740,77.0,0.161,80.1,0.565,34.1,93.0,114,73.5,5.78,4.68,6.44,534.955,2246.33,12.05,0.029,0.0478,36.3126,6.45,4.89,37.1,32.9,0.819,252,206,99,1.01,0.859,0.0423,0.0423,0.940,1033,1033,15,1,115,36.3,113.6,110.8,38.0,39.1,113,38.1,111,39.2,89.1,39.7,38.1,44.3,4.07,4.07,4.20,-2.85,0.032288,0.88265071,0.199975,3.08684707
44.00,2.333,32.620,72.147,95.178,5458.021,816.573,0.9741,77.0,-0.006,80.1,0.565,34.1,81.8,114,73.5,5.78,4.60,6.44,534.955,2242.89,12.05,0.029,0.0478,36.3126,6.45,4.92,37.1,32.9,0.819,251,205,78,0.88,0.465,0.0423,0.0423,0.940,1033,1033,15,1,115,36.4,112.2,109.5,39.1,40.0,112,39.2,109,40.2,89.1,39.6,38.1,44.3,4.07,4.07,3.62,-2.29,0.032290,0.88549206,0.200013,3.09647033
45.00,2.333,34.953,72.199,95.160,5455.729,816.223,0.9741,77.0,0.041,80.0,0.565,34.1,76.0,114,73.5,5.78,4.61,6.43,535.019,2382.80,12.05,0.029,0.0478,36.3100,6.45,6.31,37.1,32.9,0.817,248,203,67,0.83,0.235,0.0423,0.0423,0.940,1033,1033,15,1,154,4.4,112.6,109.9,38.6,39.5,111,39.6,109,40.6,89.2,39.6,38.1,44.3,4.08,4.08,3.25,-2.64,0.032291,0.88833218,0.200059,3.10609186
46.00,2.333,37.287,72.229,95.159,5453.435,815.874,0.9740,77.1,0.214,80.0,0.565,34.1,110.7,114,73.5,5.78,4.67,6.43,535.019,2753.72,12.05,0.029,0.0478,36.3100,6.45,7.74,37.1,32.9,0.818,250,204,130,1.24,1.417,0.0424,0.0424,0.940,1033,1033,15,1,160,0.3,118.0,115.2,34.4,35.6,116,36.3,113,37.5,89.1,39.7,38.1,44.3,4.08,4.08,4.55,-4.08,0.032292,0.89117140,0.200093,3.11571227
47.00,2.333,39.620,72.261,95.157,5451.140,815.525,0.9740,77.1,-0.024,79.9,0.565,34.1,110.2,114,73.5,5.78,4.74,6.43,535.019,2619.30,12.05,0.029,0.0478,36.3100,6.45,6.19,37.1,32.9,0.820,252,207,130,1.21,1.450,0.0424,0.0424,0.940,1034,1034,15,1,136,19.7,115.8,113.0,36.4,37.4,115,37.1,112,38.2,89.1,39.7,38.1,44.3,4.08,4.08,5.12,-3.82,0.032294,0.89401183,0.200114,3.12533309
48.00,2.333,41.953,72.295,95.154,5448.846,815.175,0.9740,77.0,0.098,79.9,0.565,34.1,95.7,114,73.5,5.78,4.68,6.43,535.019,2245.77,12.05,0.029,0.0478,36.3100,6.45,4.89,37.1,32.9,0.820,252,207,104,1.04,0.953,0.0424,0.0424,0.940,1033,1033,15,1,115,36.3,113.6,110.8,38.1,39.1,113,38.2,111,39.2,89.1,39.7,38.1,44.3,4.08,4.08,4.34,-2.94,0.032296,0.89685346,0.200142,3.13495350
49.00,2.333,44.287,72.331,95.569,5446.553,814.826,0.9741,77.0,0.044,79.5,0.562,34.1,82.9,114,73.8,5.75,4.58,6.41,535.019,2242.89,12.05,0.029,0.0478,36.3100,6.45,4.92,37.1,32.9,0.819,251,206,81,0.89,0.506,0.0424,0.0424,0.949,1033,1033,15,1,115,36.4,112.3,109.5,39.1,40.1,112,39.3,109,40.3,89.2,39.6,38.1,44.3,4.08,4.08,3.66,-2.32,0.032297,0.89969589,0.200179,3.14457242
50.00,2.333,46.620,72.363,95.877,5444.261,814.476,0.9741,77.0,-0.017,78.8,0.560,34.1,81.7,115,74.6,5.70,4.60,6.39,535.083,2392.05,12.05,0.029,0.0478,36.3103,6.45,6.36,37.1,32.9,0.817,248,202,77,0.90,0.408,0.0424,0.0424,0.960,1033,1033,15,1,155,3.7,112.8,110.1,38.5,39.4,111,39.6,109,40.6,89.2,39.6,38.1,44.3,4.08,4.08,3.31,-2.75,0.032298,0.90253856,0.200225,3.15419166
51.00,2.333,48.953,72.353,95.721,5441.966,814.127,0.9740,77.1,0.017,78.7,0.560,34.1,113.6,114,74.5,5.70,4.67,6.39,535.083,2757.10,12.05,0.029,0.0478,36.3103,6.45,7.74,37.1,32.9,0.818,251,205,135,1.27,1.534,0.0424,0.0424,0.959,1033,1033,15,1,160,0.3,118.0,115.2,34.4,35.6,116,36.3,113,37.5,89.2,39.7,38.1,44.3,4.08,4.08,4.89,-4.31,0.032299,0.90538148,0.200253,3.16381350
52.00,2.333,51.287,72.331,95.527,5439.672,813.778,0.9740,77.1,0.004,78.7,0.560,34.1,103.8,114,74.3,5.69,4.74,6.38,535.083,2610.99,12.05,0.029,0.0478,36.3103,6.45,6.14,37.1,32.9,0.820,252,207,118,1.14,1.234,0.0424,0.0424,0.958,1034,1034,15,1,135,20.6,115.7,113.0,36.4,37.5,115,37.1,112,38.3,89.1,39.7,38.1,44.3,4.09,4.09,4.86,-3.56,0.032301,0.90822620,0.200273,3.17343992
53.00,2.333,53.620,72.305,95.345,5437.378,813.428,0.9740,77.0,0.205,78.6,0.560,34.1,89.1,114,74.1,5.68,4.62,6.37,535.083,2245.31,12.05,0.029,0.0478,36.3103,6.45,4.90,37.1,32.9,0.819,252,206,92,0.97,0.718,0.0424,0.0424,0.957,1033,1033,15,1,115,36.3,113.6,110.8,38.1,39.1,113,38.2,111,39.3,89.1,39.7,38.1,44.3,4.09,4.09,4.01,-2.71,0.032303,0.91107100,0.200304,3.18306840
54.00,2.333,55.953,72.280,95.199,5435.087,813.079,0.9741,77.0,-0.036,78.5,0.560,34.1,77.5,114,74.0,5.68,4.56,6.37,535.083,2242.89,12.05,0.029,0.0478,36.3103,6.45,4.92,37.1,32.9,0.819,250,205,71,0.83,0.311,0.0424,0.0424,0.957,1033,1033,15,1,115,36.4,112.3,109.5,39.1,40.1,112,39.3,109,40.3,89.2,39.6,38.1,44.3,4.09,4.09,3.42,-2.17,0.032305,0.91391405,0.200348,3.19269746
55.00,2.333,58.287,72.261,94.263,5432.796,812.730,0.9741,77.0,-0.067,79.2,0.564,34.1,91.1,113,72.9,5.72,4.61,6.37,535.145,2401.33,12.05,0.029,0.0478,36.3235,6.45,6.41,37.1,32.9,0.816,247,202,94,1.02,0.701,0.0424,0.0424,0.940,1033,1033,15,1,156,3.2,113.0,110.3,38.3,39.3,112,39.5,109,40.5,89.2,39.6,38.1,44.3,4.09,4.09,3.49,-2.97,0.032306,0.91675337,0.200399,3.20232521
56.00,2.333,60.620,72.292,94.257,5430.503,812.380,0.9740,77.1,-0.088,79.2,0.564,34.1,113.3,113,72.8,5.73,4.67,6.37,535.145,2760.25,12.05,0.029,0.0478,36.3235,6.45,7.74,37.1,32.9,0.818,251,205,136,1.26,1.516,0.0424,0.0424,0.939,1033,1033,15,1,160,0.3,118.1,115.3,34.4,35.6,116,36.3,113,37.5,89.2,39.7,38.1,44.3,4.09,4.09,5.00,-4.37,0.032306,0.91959058,0.200430,3.21195107
57.00,2.333,62.953,72.351,94.823,5428.208,812.031,0.9740,77.1,0.021,78.9,0.562,34.1,102.1,113,73.1,5.71,4.72,6.36,535.145,2602.51,12.05,0.029,0.0478,36.3235,6.45,6.08,37.1,32.9,0.820,252,207,116,1.11,1.170,0.0424,0.0424,0.948,1034,1034,15,1,134,21.4,115.7,112.9,36.5,37.6,115,37.1,112,38.3,89.1,39.7,38.1,44.3,4.09,4.09,4.76,-3.47,0.032307,0.92242907,0.200456,3.22157474
58.00,2.333,65.287,72.419,95.358,5425.914,811.682,0.9740,77.0,0.212,78.4,0.559,34.1,88.1,114,74.0,5.68,4.60,6.35,535.145,2244.92,12.05,0.029,0.0478,36.3235,6.45,4.90,37.1,32.9,0.819,252,206,90,0.95,0.684,0.0424,0.0424,0.959,1033,1033,15,1,115,36.4,113.6,110.8,38.1,39.2,113,38.2,111,39.3,89.2,39.7,38.1,44.3,4.09,4.09,3.93,-2.66,0.032310,0.92526931,0.200494,3.23119427
59.00,2.333,67.620,72.529,95.531,5423.622,811.332,0.9741,77.0,0.002,78.1,0.558,34.1,76.5,114,74.3,5.66,4.55,6.35,535.145,2242.89,12.05,0.029,0.0478,36.3235,6.45,4.92,37.1,32.9,0.818,250,205,69,0.82,0.279,0.0424,0.0424,0.963,1033,1033,15,1,115,36.4,112.3,109.5,39.1,40.1,112,39.3,109,40.3,89.2,39.6,38.0,44.3,4.09,4.09,3.34,-2.11,0.032312,0.92810993,0.200542,3.24081055
60.00,2.333,69.953,72.568,95.456,5421.329,810.983,0.9741,77.0,-0.090,78.0,0.558,34.1,106.0,114,74.3,5.66,4.61,6.34,535.209,2410.63,12.05,0.029,0.0478,36.3274,6.45,6.45,37.1,32.9,0.817,249,203,121,1.19,1.235,0.0424,0.0424,0.962,1033,1033,15,1,157,2.7,113.2,110.5,38.2,39.2,112,39.5,109,40.5,89.2,39.6,38.0,44.3,4.10,4.10,4.09,-3.48,0.032312,0.93094987,0.200589,3.25042531
61.00,2.333,72.287,72.599,95.360,5419.034,810.634,0.9740,77.1,-0.034,78.0,0.558,34.1,111.1,114,74.2,5.66,4.69,6.34,535.209,2763.16,12.05,0.029,0.0478,36.3274,6.45,7.73,37.1,32.9,0.819,252,207,132,1.22,1.473,0.0424,0.0424,0.961,1033,1033,15,1,160,0.3,118.1,115.3,34.4,35.6,116,36.3,113,37.5,89.2,39.7,38.0,44.3,4.10,4.10,5.20,-4.45,0.032313,0.93379115,0.200614,3.26004164
62.00,2.333,74.620,72.626,95.264,5416.740,810.284,0.9740,77.0,0.098,78.0,0.558,34.1,95.2,114,74.1,5.66,4.64,6.33,535.209,2593.87,12.05,0.029,0.0478,36.3274,6.45,6.03,37.1,32.9,0.819,252,207,103,1.04,0.931,0.0424,0.0424,0.961,1034,1034,15,1,133,22.3,115.7,112.9,36.6,37.6,115,37.2,112,38.3,89.1,39.7,38.0,44.3,4.10,4.10,4.34,-3.16,0.032315,0.93663373,0.200647,3.26965917
63.00,2.333,76.953,72.651,95.181,5414.448,809.935,0.9740,77.0,0.044,77.9,0.558,34.1,82.3,114,74.1,5.66,4.55,6.33,535.209,2244.59,12.05,0.029,0.0478,36.3274,6.45,4.90,37.1,32.9,0.819,251,206,80,0.89,0.477,0.0424,0.0424,0.960,1033,1033,15,1,115,36.4,113.6,110.8,38.1,39.2,113,38.2,111,39.3,89.2,39.7,38.0,44.3,4.10,4.10,3.65,-2.47,0.032318,0.93947562,0.200692,3.27927556
64.00,2.333,79.287,72.707,95.067,5412.157,809.585,0.9741,77.0,-0.017,77.8,0.558,34.1,81.1,114,74.0,5.66,4.56,6.32,535.209,2242.89,12.05,0.029,0.0478,36.3274,6.45,4.92,37.1,32.9,0.817,248,202,76,0.89,0.379,0.0424,0.0424,0.960,1033,1033,15,1,115,36.4,112.3,109.5,39.1,40.1,112,39.3,109,40.3,89.2,39.7,38.0,44.3,4.10,4.10,3.22,-2.07,0.032320,0.94231581,0.200747,3.28889114
65.00,2.333,81.620,72.740,95.037,5409.863,809.236,0.9741,77.1,0.017,77.7,0.558,34.1,112.8,113,73.9,5.65,4.63,6.32,535.273,2419.96,12.05,0.029,0.0478,36.3363,6.45,6.50,37.1,32.9,0.818,251,205,135,1.26,1.498,0.0424,0.0424,0.960,1033,1033,15,1,157,2.3,113.3,110.6,38.1,39.1,112,39.4,109,40.4,89.2,39.6,38.0,44.3,4.10,4.10,4.78,-3.99,0.032320,0.94515512,0.200784,3.29850673
66.00,2.333,83.953,72.778,95.027,5407.569,808.887,0.9740,77.1,0.004,77.7,0.558,34.1,103.4,113,73.9,5.65,4.70,6.31,535.273,2765.83,12.05,0.029,0.0478,36.3363,6.45,7.73,37.1,32.9,0.820,252,207,118,1.13,1.214,0.0424,0.0424,0.960,1033,1033,15,1,160,0.3,118.1,115.4,34.4,35.6,116,36.3,113,37.5,89.2,39.7,38.0,44.3,4.10,4.10,4.91,-4.12,0.032321,0.94799592,0.200813,3.30812348
67.00,2.333,86.287,72.821,95.024,5405.275,808.537,0.9740,77.0,0.205,77.6,0.558,34.1,89.1,113,73.9,5.65,4.58,6.31,535.273,2585.08,12.05,0.029,0.0478,36.3363,6.45,5.97,37.1,32.9,0.819,252,206,92,0.96,0.713,0.0424,0.0424,0.960,1034,1034,15,1,132,23.1,115.6,112.9,36.6,37.7,115,37.2,112,38.3,89.2,39.7,38.0,44.3,4.11,4.11,4.01,-2.91,0.032323,0.95083704,0.200854,3.31773886
68.00,2.333,88.620,72.917,95.031,5402.984,808.188,0.9740,77.0,-0.032,77.5,0.557,34.1,77.4,113,74.0,5.65,4.51,6.30,535.273,2244.32,12.05,0.029,0.0478,36.3363,6.45,4.91,37.1,32.9,0.818,250,205,71,0.83,0.304,0.0424,0.0424,0.960,1033,1033,15,1,115,36.4,113.7,110.8,38.1,39.2,114,38.2,111,39.3,89.2,39.7,38.0,44.3,4.11,4.11,3.40,-2.29,0.032326,0.95367711,0.200906,3.32735202
69.00,2.333,90.953,72.971,95.029,5400.692,807.839,0.9741,77.0,-0.084,77.4,0.557,34.1,101.9,113,74.0,5.65,4.58,6.30,535.273,2242.89,12.05,0.029,0.0478,36.3363,6.45,4.92,37.1,32.9,0.816,248,203,114,1.14,1.081,0.0424,0.0424,0.960,1033,1033,15,1,115,36.4,112.3,109.6,39.1,40.1,112,39.3,109,40.3,89.2,39.7,38.0,44.3,4.11,4.11,3.81,-2.56,0.032328,0.95651557,0.200961,3.33696324
70.00,2.333,93.287,73.027,95.033,5398.397,807.489,0.9741,77.1,-0.029,77.4,0.557,34.1,112.5,113,74.0,5.65,4.65,6.30,535.339,2429.29,12.05,0.029,0.0478,36.3414,6.45,6.55,37.1,32.9,0.819,252,206,135,1.24,1.506,0.0424,0.0424,0.960,1033,1033,15,1,157,2.0,113.5,110.8,38.0,39.0,112,39.4,109,40.4,89.2,39.6,38.0,44.3,4.11,4.11,5.11,-4.21,0.032327,0.95935475,0.200993,3.34657463
71.00,2.333,95.620,73.085,95.042,5396.103,807.140,0.9740,77.0,0.072,77.4,0.557,34.1,96.7,113,74.0,5.65,4.63,6.29,535.339,2768.26,12.05,0.029,0.0478,36.3414,6.45,7.72,37.1,32.9,0.819,252,207,107,1.05,0.980,0.0424,0.0424,0.960,1033,1033,15,1,160,0.3,118.2,115.4,34.4,35.6,116,36.3,113,37.5,89.2,39.7,38.0,44.3,4.11,4.11,4.48,-3.76,0.032329,0.96219544,0.201029,3.35618596
72.00,2.333,97.953,73.145,95.048,5393.811,806.791,0.9740,77.0,0.098,77.3,0.557,34.1,83.7,113,74.0,5.65,4.53,6.29,535.339,2576.15,12.05,0.029,0.0478,36.3414,6.45,5.92,37.1,32.9,0.819,251,206,83,0.90,0.522,0.0424,0.0424,0.960,1034,1034,15,1,131,23.9,115.6,112.8,36.7,37.7,115,37.2,112,38.4,89.2,39.8,38.0,44.3,4.11,4.11,3.73,-2.70,0.032331,0.96503579,0.201078,3.36579472
73.00,2.333,100.287,73.270,95.051,5391.519,806.442,0.9740,77.0,0.026,77.2,0.557,34.1,76.5,113,74.0,5.66,4.53,6.29,535.339,2244.09,12.05,0.029,0.0478,36.3414,6.45,4.91,37.1,32.9,0.817,249,203,69,0.83,0.244,0.0424,0.0424,0.959,1033,1033,15,1,115,36.4,113.7,110.9,38.1,39.2,114,38.2,111,39.3,89.2,39.7,38.0,44.3,4.11,4.11,3.20,-2.17,0.032335,0.96787486,0.201137,3.37540157
74.00,2.333,102.620,73.334,95.042,5389.226,806.092,0.9741,77.0,0.668,77.2,0.557,34.1,111.8,113,74.0,5.66,4.60,6.28,535.339,2242.89,12.05,0.029,0.0478,36.3414,6.45,4.92,37.1,32.9,0.818,251,205,134,1.24,1.453,0.0424,0.0424,0.959,1033,1033,15,1,115,36.4,112.3,109.6,39.2,40.2,112,39.3,109,40.4,89.2,39.6,38.0,44.3,4.12,4.12,4.54,-3.07,0.032335,0.97071306,0.201182,3.38500742
75.00,2.333,104.953,73.399,95.039,5386.932,805.743,0.9741,77.1,0.001,77.1,0.556,34.1,105.2,113,74.0,5.66,4.67,6.28,535.405,2438.62,12.05,0.029,0.0478,36.3440,6.45,6.60,37.1,32.9,0.819,253,207,122,1.14,1.271,0.0424,0.0424,0.959,1033,1033,15,1,158,1.7,113.7,111.0,37.9,38.9,112,39.3,109,40.3,89.3,39.6,38.0,44.3,4.12,4.12,4.99,-4.10,0.032335,0.97355296,0.201216,3.39461416
76.00,2.333,107.287,73.465,95.041,5384.638,805.394,0.9740,77.0,0.205,77.1,0.556,34.1,90.6,113,74.0,5.66,4.56,6.28,535.405,2770.45,12.05,0.029,0.0478,36.3440,6.45,7.72,37.1,32.9,0.819,252,207,96,0.98,0.764,0.0424,0.0424,0.959,1033,1033,15,1,160,0.3,118.2,115.4,34.4,35.6,116,36.3,113,37.5,89.2,39.7,37.9,44.3,4.12,4.12,4.13,-3.46,0.032337,0.97639362,0.201260,3.40421992
77.00,2.333,109.620,73.531,95.040,5382.346,805.044,0.9740,77.0,-0.035,77.0,0.556,34.1,78.7,113,74.1,5.66,4.49,6.27,535.405,2567.08,12.05,0.029,0.0478,36.3440,6.45,5.86,37.1,32.9,0.818,251,205,74,0.84,0.347,0.0424,0.0424,0.958,1034,1034,15,1,130,24.6,115.6,112.8,36.7,37.8,115,37.2,112,38.4,89.2,39.8,37.9,44.3,4.12,4.12,3.47,-2.51,0.032340,0.97923345,0.201315,3.41382369
78.00,2.333,111.953,73.666,95.034,5380.055,804.695,0.9740,77.0,-0.074,76.9,0.556,34.1,97.4,113,74.1,5.67,4.54,6.27,535.405,2243.90,12.05,0.029,0.0478,36.3440,6.45,4.91,37.1,32.9,0.816,248,202,106,1.08,0.916,0.0424,0.0424,0.958,1033,1033,15,1,115,36.4,113.7,110.9,38.1,39.2,114,38.2,111,39.3,89.2,39.7,37.9,44.3,4.12,4.12,3.64,-2.58,0.032343,0.98207174,0.201376,3.42342595
79.00,2.333,114.287,73.734,95.019,5377.761,804.346,0.9741,77.1,-0.038,76.9,0.556,34.1,113.1,113,74.1,5.67,4.61,6.27,535.405,2242.89,12.05,0.029,0.0478,36.3440,6.45,4.92,37.1,32.9,0.819,252,206,137,1.24,1.517,0.0424,0.0424,0.957,1033,1033,15,1,115,36.4,112.3,109.6,39.2,40.2,112,39.4,109,40.4,89.3,39.6,37.9,44.3,4.12,4.12,4.95,-3.30,0.032343,0.98491050,0.201413,3.43302870
80.00,2.333,116.620,73.803,95.015,5375.467,803.996,0.9741,77.0,0.061,76.8,0.556,34.1,98.3,113,74.1,5.67,4.62,6.26,535.472,2447.95,12.05,0.029,0.0478,36.3435,6.45,6.64,37.1,32.9,0.819,253,207,110,1.06,1.032,0.0424,0.0424,0.957,1033,1033,15,1,158,1.5,113.8,111.2,37.8,38.8,112,39.3,109,40.3,89.3,39.6,37.9,44.3,4.12,4.12,4.60,-3.86,0.032343,0.98775098,0.201452,3.44263225
81.00,2.333,118.953,73.873,95.012,5373.174,803.647,0.9741,77.0,0.108,76.8,0.556,34.1,85.0,113,74.1,5.67,4.51,6.26,535.472,2772.39,12.05,0.029,0.0478,36.3435,6.45,7.71,37.1,32.9,0.819,252,206,86,0.91,0.567,0.0424,0.0424,0.957,1033,1033,15,1,160,0.3,118.3,115.5,34.4,35.6,116,36.3,113,37.5,89.2,39.7,37.9,44.3,4.13,4.13,3.83,-3.19,0.032345,0.99059128,0.201504,3.45223391
82.00,2.333,121.287,74.013,95.013,5370.883,803.298,0.9740,77.0,0.065,76.7,0.555,34.1,74.1,113,74.1,5.68,4.49,6.26,535.472,2557.88,12.05,0.029,0.0478,36.3435,6.45,5.81,37.1,32.9,0.818,251,205,66,0.78,0.189,0.0424,0.0424,0.956,1034,1034,15,1,129,25.4,115.6,112.8,36.7,37.8,115,37.2,112,38.4,89.2,39.8,37.9,44.4,4.13,4.13,3.23,-2.34,0.032348,0.99343038,0.201565,3.46183415
83.00,2.333,123.620,74.084,95.010,5368.590,802.948,0.9741,77.0,0.355,76.7,0.555,34.1,110.8,113,74.1,5.68,4.56,6.26,535.472,2243.73,12.05,0.029,0.0478,36.3435,6.45,4.91,37.1,32.9,0.817,251,205,132,1.23,1.408,0.0424,0.0424,0.956,1033,1033,15,1,115,36.4,113.7,110.9,38.2,39.2,114,38.3,111,39.4,89.2,39.7,37.9,44.4,4.13,4.13,4.46,-3.19,0.032351,0.99626840,0.201617,3.47143370
84.00,2.333,125.953,74.155,95.466,5366.295,802.599,0.9741,77.1,0.001,76.4,0.554,34.1,105.1,114,74.3,5.67,4.64,6.24,535.472,2242.89,12.05,0.029,0.0478,36.3435,6.45,4.92,37.1,32.9,0.819,253,207,122,1.14,1.268,0.0424,0.0424,0.963,1033,1033,15,1,115,36.4,112.3,109.6,39.2,40.2,112,39.4,109,40.4,89.3,39.6,37.9,44.4,4.13,4.13,4.83,-3.11,0.032351,0.99910909,0.201650,3.48103540
85.00,2.333,128.287,74.213,95.847,5364.002,802.250,0.9741,77.0,0.210,75.9,0.551,34.1,89.1,114,75.1,5.63,4.51,6.23,535.539,2457.25,12.05,0.029,0.0478,36.3404,6.45,6.69,37.1,32.9,0.819,253,207,93,0.96,0.711,0.0424,0.0424,0.973,1033,1033,15,1,158,1.3,114.0,111.3,37.7,38.7,112,39.2,109,40.2,89.3,39.6,37.9,44.4,4.13,4.13,4.07,-3.55,0.032352,1.00195269,0.201694,3.49063853
86.00,2.333,130.620,74.263,95.689,5361.711,801.901,0.9741,77.0,0.013,75.6,0.551,34.1,76.1,114,75.1,5.62,4.47,6.21,535.539,2774.08,12.05,0.029,0.0478,36.3404,6.45,7.70,37.1,32.9,0.818,251,206,69,0.81,0.258,0.0424,0.0424,0.974,1033,1033,15,1,160,0.3,118.3,115.6,34.4,35.5,116,36.2,113,37.5,89.3,39.7,37.9,44.4,4.13,4.13,3.37,-2.80,0.032354,1.00479648,0.201752,3.50024339
87.00,2.333,132.953,74.263,95.484,5359.418,801.551,0.9740,77.0,0.355,75.6,0.551,34.1,110.6,113,75.0,5.61,4.55,6.21,535.539,2548.56,12.05,0.029,0.0478,36.3404,6.45,5.75,37.1,32.9,0.817,251,205,131,1.23,1.401,0.0424,0.0424,0.972,1034,1034,15,1,128,26.1,115.6,112.8,36.8,37.9,115,37.2,112,38.4,89.2,39.7,37.9,44.4,4.13,4.13,4.50,-3.42,0.032357,1.00763918,0.201802,3.50985175
88.00,2.333,135.287,74.255,95.285,5357.125,801.202,0.9740,77.1,0.001,75.5,0.551,34.1,104.2,113,74.8,5.61,4.63,6.20,535.539,2243.60,12.05,0.029,0.0478,36.3404,6.45,4.91,37.1,32.9,0.819,253,208,120,1.14,1.235,0.0424,0.0424,0.971,1033,1033,15,1,115,36.4,113.7,110.9,38.2,39.3,114,38.4,111,39.4,89.2,39.7,37.9,44.4,4.14,4.14,4.85,-3.31,0.032358,1.01048339,0.201834,3.51946610
89.00,2.333,137.620,74.245,95.099,5354.833,800.853,0.9741,77.0,0.210,75.4,0.551,34.1,88.3,113,74.6,5.60,4.50,6.19,535.539,2242.89,12.05,0.029,0.0478,36.3404,6.45,4.92,37.1,32.9,0.819,253,207,91,0.95,0.676,0.0424,0.0424,0.971,1033,1033,15,1,115,36.4,112.3,109.6,39.3,40.3,112,39.5,109,40.5,89.3,39.7,37.9,44.4,4.14,4.14,3.93,-2.50,0.032359,1.01332772,0.201880,3.52908337
90.00,2.333,139.953,74.239,94.913,5352.542,800.503,0.9741,77.0,0.013,75.3,0.551,34.1,75.5,113,74.4,5.59,4.46,6.18,535.601,2466.54,12.05,0.029,0.0478,36.3575,6.45,6.73,37.1,32.9,0.818,251,206,68,0.80,0.232,0.0424,0.0424,0.971,1033,1033,15,1,159,1.1,114.2,111.5,37.5,38.6,112,39.1,110,40.1,89.3,39.6,37.9,44.4,4.14,4.14,3.42,-3.12,0.032361,1.01617006,0.201939,3.53870143
91.00,2.333,142.287,74.248,94.874,5350.251,800.154,0.9740,77.0,0.355,75.2,0.551,34.1,110.0,113,74.4,5.58,4.54,6.17,535.601,2775.51,12.05,0.029,0.0478,36.3575,6.45,7.69,37.1,32.9,0.817,251,205,131,1.22,1.377,0.0424,0.0424,0.971,1033,1033,15,1,160,0.3,118.4,115.6,34.4,35.5,116,36.2,113,37.5,89.2,39.7,37.9,44.4,4.14,4.14,4.57,-3.84,0.032362,1.01901014,0.201991,3.54832009
92.00,2.333,144.620,74.265,94.858,5347.957,799.805,0.9740,77.0,0.001,75.1,0.551,34.1,104.0,113,74.4,5.58,4.62,6.17,535.601,2539.11,12.05,0.029,0.0478,36.3575,6.45,5.69,37.1,32.9,0.819,254,208,120,1.13,1.222,0.0424,0.0424,0.972,1034,1034,15,1,127,26.7,115.5,112.7,36.9,37.9,115,37.3,112,38.5,89.2,39.8,37.8,44.4,4.14,4.14,4.88,-3.56,0.032364,1.02185137,0.202025,3.55794089
93.00,2.333,146.953,74.290,94.857,5345.665,799.456,0.9740,77.0,0.210,75.0,0.550,34.1,88.2,113,74.4,5.57,4.49,6.16,535.601,2243.48,12.05,0.029,0.0478,36.3575,6.45,4.91,37.1,32.9,0.819,253,207,92,0.95,0.672,0.0424,0.0424,0.972,1033,1033,15,1,115,36.4,113.6,110.9,38.3,39.3,113,38.4,111,39.5,89.2,39.7,37.8,44.4,4.14,4.14,3.95,-2.66,0.032366,1.02469296,0.202073,3.56756069
94.00,2.333,149.287,74.363,94.874,5343.375,799.106,0.9741,77.0,0.013,74.9,0.550,34.1,75.6,113,74.4,5.57,4.45,6.16,535.601,2242.89,12.05,0.029,0.0478,36.3575,6.45,4.92,37.1,32.9,0.818,252,206,69,0.80,0.235,0.0424,0.0424,0.973,1033,1033,15,1,115,36.4,112.3,109.6,39.3,40.3,112,39.5,109,40.5,89.2,39.7,37.8,44.4,4.14,4.14,3.29,-2.08,0.032368,1.02753303,0.202135,3.57717792
95.00,2.333,151.620,74.409,94.895,5341.083,798.757,0.9741,77.0,0.355,74.8,0.550,34.1,110.0,113,74.5,5.57,4.53,6.15,535.663,2475.80,12.05,0.029,0.0478,36.3585,6.45,6.78,37.1,32.9,0.817,251,205,131,1.22,1.376,0.0424,0.0424,0.974,1033,1033,15,1,159,1.0,114.4,111.7,37.4,38.5,112,39.0,110,40.0,89.2,39.7,37.8,44.4,4.15,4.15,4.54,-4.06,0.032368,1.03037139,0.202189,3.58679318
96.00,2.333,153.953,74.460,94.918,5338.790,798.408,0.9740,77.0,0.001,74.8,0.550,34.1,104.0,113,74.5,5.57,4.61,6.15,535.663,2776.70,12.05,0.029,0.0478,36.3585,6.45,7.67,37.1,32.9,0.819,254,208,121,1.13,1.223,0.0424,0.0424,0.974,1033,1033,15,1,160,0.3,118.3,115.6,34.4,35.6,116,36.3,113,37.5,89.2,39.7,37.8,44.4,4.15,4.15,4.92,-3.96,0.032370,1.03321136,0.202226,3.59640885
97.00,2.333,156.287,74.514,94.936,5336.498,798.059,0.9739,77.0,0.210,74.7,0.550,34.1,88.3,113,74.5,5.57,4.48,6.15,535.663,2529.55,12.05,0.029,0.0478,36.3585,6.45,5.64,37.1,32.9,0.819,253,207,92,0.95,0.676,0.0424,0.0424,0.974,1034,1034,15,1,126,27.4,115.5,112.7,36.9,38.0,115,37.3,112,38.5,89.2,39.8,37.8,44.4,4.15,4.15,3.96,-2.86,0.032372,1.03605206,0.202277,3.60602260
98.00,2.333,158.620,74.631,94.958,5334.207,797.709,0.9740,77.0,0.013,74.6,0.549,34.1,75.7,113,74.6,5.57,4.44,6.14,535.663,2243.39,12.05,0.029,0.0478,36.3585,6.45,4.91,37.1,32.9,0.818,252,206,69,0.80,0.239,0.0424,0.0424,0.975,1033,1033,15,1,115,36.4,113.7,110.9,38.3,39.3,114,38.4,111,39.5,89.2,39.7,37.8,44.4,4.15,4.15,3.30,-2.22,0.032376,1.03889159,0.202340,3.61563352
99.00,2.333,160.953,74.692,94.957,5331.915,797.360,0.9741,77.0,0.355,74.6,0.549,34.1,110.0,113,74.6,5.57,4.51,6.14,535.663,2242.89,12.05,0.029,0.0478,36.3585,6.45,4.92,37.1,32.9,0.817,251,205,131,1.21,1.374,0.0424,0.0424,0.975,1033,1033,15,1,115,36.4,112.3,109.6,39.3,40.3,112,39.5,109,40.5,89.2,39.7,37.8,44.4,4.15,4.15,4.40,-2.97,0.032377,1.04172967,0.202397,3.62524266
100.00,2.333,163.287,74.754,94.958,5329.622,797.011,0.9741,77.0,0.001,74.5,0.549,34.1,104.0,113,74.6,5.57,4.59,6.14,535.729,2485.02,12.05,0.029,0.0478,36.3549,6.45,6.82,37.1,32.9,0.819,254,208,121,1.12,1.223,0.0424,0.0424,0.974,1033,1033,15,1,159,0.9,114.5,111.8,37.3,38.4,113,39.0,110,40.0,89.2,39.7,37.8,44.4,4.15,4.15,4.97,-4.26,0.032377,1.04456953,0.202437,3.63485270
101.00,2.333,165.620,74.818,94.962,5327.330,796.662,0.9740,77.0,0.210,74.5,0.549,34.1,88.4,113,74.6,5.57,4.47,6.13,535.729,2777.63,12.05,0.029,0.0478,36.3549,6.45,7.66,37.1,32.9,0.818,253,207,92,0.94,0.677,0.0424,0.0424,0.974,1033,1033,15,1,160,0.3,118.3,115.6,34.4,35.6,116,36.3,113,37.5,89.2,39.7,37.8,44.4,4.15,4.15,3.99,-3.19,0.032379,1.04741020,0.202489,3.64446147
102.00,2.333,167.953,74.947,94.962,5325.039,796.312,0.9739,77.0,0.013,74.4,0.549,34.1,75.8,113,74.7,5.58,4.42,6.13,535.729,2519.88,12.05,0.029,0.0478,36.3549,6.45,5.58,37.1,32.9,0.818,252,206,69,0.80,0.240,0.0425,0.0425,0.974,1034,1034,15,1,126,28.0,115.5,112.7,36.9,38.0,115,37.3,112,38.5,89.2,39.8,37.8,44.4,4.16,4.16,3.31,-2.39,0.032382,1.05024970,0.202554,3.65406810
103.00,2.333,170.287,75.013,94.958,5322.748,795.963,0.9740,77.0,0.482,74.3,0.549,34.1,109.9,113,74.7,5.58,4.50,6.13,535.729,2243.31,12.05,0.029,0.0478,36.3549,6.45,4.92,37.1,32.9,0.817,251,205,131,1.21,1.371,0.0425,0.0425,0.973,1033,1033,15,1,115,36.4,113.7,110.9,38.3,39.3,114,38.4,111,39.5,89.2,39.7,37.8,44.4,4.16,4.16,4.44,-3.16,0.032385,1.05308776,0.202613,3.66367366
104.00,2.333,172.620,75.079,94.945,5320.454,795.614,0.9741,77.0,0.004,74.3,0.548,34.1,104.0,113,74.7,5.58,4.58,6.12,535.729,2242.89,12.05,0.029,0.0478,36.3549,6.45,4.92,37.1,32.9,0.819,254,208,121,1.12,1.220,0.0425,0.0425,0.973,1033,1033,15,1,115,36.4,112.3,109.6,39.3,40.3,112,39.5,109,40.5,89.2,39.7,37.8,44.4,4.16,4.16,4.81,-3.09,0.032385,1.05592765,0.202653,3.67328072
105.00,2.333,174.953,75.146,94.941,5318.162,795.265,0.9741,77.0,0.202,74.3,0.548,34.1,88.4,113,74.7,5.58,4.45,6.12,535.795,2494.20,12.05,0.029,0.0478,36.3603,6.46,6.86,37.1,32.9,0.818,254,208,93,0.94,0.676,0.0425,0.0425,0.973,1033,1033,15,1,159,0.8,114.7,112.0,37.2,38.3,113,38.9,110,39.9,89.2,39.7,37.7,44.4,4.16,4.16,4.07,-3.66,0.032386,1.05876836,0.202707,3.68288706
106.00,2.333,177.287,75.282,94.939,5315.872,794.915,0.9740,76.9,0.041,74.2,0.548,34.1,75.8,113,74.7,5.58,4.41,6.12,535.795,2778.30,12.05,0.029,0.0478,36.3603,6.46,7.64,37.1,32.9,0.817,252,206,69,0.80,0.240,0.0425,0.0425,0.972,1033,1033,15,1,160,0.3,118.4,115.6,34.4,35.6,116,36.3,113,37.5,89.2,39.7,37.7,44.4,4.16,4.16,3.34,-2.64,0.032388,1.06160789,0.202773,3.69249170
107.00,2.333,179.620,75.351,94.938,5313.580,794.566,0.9739,77.0,0.482,74.1,0.548,34.1,109.9,113,74.7,5.59,4.49,6.11,535.795,2510.12,12.05,0.029,0.0478,36.3603,6.46,5.53,37.1,32.8,0.817,252,206,131,1.21,1.367,0.0425,0.0425,0.972,1034,1034,15,1,125,28.6,115.5,112.7,36.9,38.0,115,37.3,112,38.5,89.2,39.8,37.7,44.4,4.16,4.16,4.49,-3.40,0.032391,1.06444592,0.202833,3.70209560
108.00,2.333,181.953,75.420,94.935,5311.287,794.217,0.9740,77.0,0.004,74.1,0.548,34.1,104.0,113,74.7,5.59,4.57,6.11,535.795,2243.24,12.05,0.029,0.0478,36.3603,6.46,4.92,37.1,32.8,0.819,255,208,121,1.12,1.217,0.0425,0.0425,0.971,1033,1033,15,1,115,36.4,113.6,110.9,38.3,39.4,113,38.4,111,39.5,89.2,39.7,37.7,44.4,4.16,4.16,4.83,-3.29,0.032393,1.06728578,0.202875,3.71170133
109.00,2.333,184.287,75.490,94.916,5308.995,793.868,0.9741,77.0,0.202,74.0,0.548,34.1,88.4,113,74.7,5.59,4.44,6.11,535.795,2242.89,12.05,0.029,0.0478,36.3603,6.46,4.92,37.1,32.8,0.818,254,208,93,0.94,0.674,0.0425,0.0425,0.971,1033,1033,15,1,115,36.4,112.3,109.6,39.3,40.3,112,39.5,109,40.6,89.2,39.7,37.7,44.4,4.17,4.17,3.91,-2.48,0.032394,1.07012649,0.202929,3.72130657
110.00,2.333,186.620,75.631,94.915,5306.705,793.519,0.9741,76.9,0.041,74.0,0.548,34.1,75.9,113,74.7,5.59,4.40,6.10,535.859,2503.34,12.05,0.029,0.0479,36.3643,6.46,6.90,37.1,32.8,0.817,253,207,70,0.80,0.240,0.0425,0.0425,0.970,1033,1033,15,1,159,0.7,114.9,112.2,37.1,38.1,113,38.8,110,39.8,89.3,39.7,37.7,44.4,4.17,4.17,3.42,-3.23,0.032396,1.07296603,0.202997,3.73091028
111.00,2.333,188.953,75.702,94.917,5304.413,793.169,0.9740,77.0,0.482,73.9,0.547,34.1,109.8,113,74.7,5.60,4.47,6.10,535.859,2778.72,12.05,0.029,0.0479,36.3643,6.46,7.63,37.1,32.8,0.817,252,206,131,1.20,1.363,0.0425,0.0425,0.970,1033,1033,15,1,160,0.3,118.4,115.7,34.4,35.6,116,36.3,113,37.5,89.2,39.8,37.7,44.4,4.17,4.17,4.54,-3.69,0.032397,1.07580406,0.203057,3.74051340
112.00,2.333,191.287,75.773,94.916,5302.120,792.820,0.9739,77.0,0.004,73.9,0.547,34.1,104.0,113,74.8,5.60,4.55,6.10,535.859,2500.26,12.05,0.029,0.0479,36.3643,6.46,5.47,37.1,32.8,0.819,255,209,122,1.12,1.215,0.0425,0.0425,0.970,1034,1034,15,1,124,29.1,115.4,112.6,37.0,38.1,115,37.4,112,38.5,89.2,39.8,37.7,44.4,4.17,4.17,4.86,-3.53,0.032400,1.07864386,0.203100,3.75011843
113.00,2.333,193.620,75.844,94.913,5299.828,792.471,0.9740,76.9,0.202,73.8,0.547,34.1,88.4,113,74.8,5.60,4.43,6.09,535.859,2243.18,12.05,0.029,0.0479,36.3643,6.46,4.92,37.1,32.8,0.818,254,208,93,0.94,0.673,0.0425,0.0425,0.969,1033,1033,15,1,115,36.4,113.6,110.9,38.3,39.4,113,38.5,111,39.6,89.2,39.7,37.7,44.4,4.17,4.17,3.93,-2.64,0.032402,1.08148453,0.203156,3.75972308
114.00,2.333,195.953,75.987,94.893,5297.538,792.122,0.9740,76.9,0.041,73.7,0.547,34.1,75.9,112,74.8,5.60,4.39,6.09,535.859,2242.89,12.05,0.029,0.0479,36.3643,6.46,4.92,37.1,32.8,0.817,253,207,70,0.80,0.240,0.0425,0.0425,0.968,1033,1033,15,1,115,36.4,112.3,109.6,39.3,40.3,112,39.5,109,40.5,89.2,39.7,37.7,44.4,4.17,4.17,3.28,-2.06,0.032404,1.08432403,0.203224,3.76932629
115.00,2.333,198.287,76.060,95.320,5295.246,791.772,0.9740,77.0,0.668,73.4,0.545,34.1,112.0,113,74.9,5.58,4.47,6.08,535.924,2512.42,12.05,0.029,0.0478,36.3550,6.46,6.95,37.1,32.8,0.817,253,207,136,1.23,1.448,0.0425,0.0425,0.977,1033,1033,15,1,159,0.6,115.1,112.4,36.9,38.0,113,38.6,110,39.7,89.2,39.7,37.7,44.4,4.17,4.17,4.75,-4.31,0.032404,1.08716258,0.203282,3.77892940
116.00,2.333,200.620,76.120,95.696,5292.953,791.423,0.9740,77.0,0.033,72.9,0.542,34.1,100.4,113,75.7,5.55,4.51,6.07,535.924,2778.88,12.05,0.029,0.0478,36.3550,6.46,7.61,37.1,32.8,0.819,255,209,115,1.08,1.097,0.0425,0.0425,0.986,1033,1033,15,1,160,0.3,118.4,115.6,34.5,35.6,116,36.3,113,37.6,89.2,39.8,37.6,44.4,4.18,4.18,4.64,-3.59,0.032406,1.09000531,0.203322,3.78853663
117.00,2.333,202.953,76.160,95.700,5290.662,791.074,0.9739,76.9,0.062,72.7,0.542,34.1,84.1,113,75.8,5.54,4.38,6.06,535.924,2490.31,12.05,0.029,0.0478,36.3550,6.46,5.41,37.1,32.8,0.818,254,208,85,0.89,0.525,0.0425,0.0425,0.989,1034,1034,15,1,124,29.7,115.4,112.6,37.1,38.2,115,37.4,112,38.6,89.2,39.8,37.6,44.4,4.18,4.18,3.71,-2.67,0.032409,1.09284980,0.203378,3.79814576
118.00,2.333,205.287,76.186,95.362,5288.372,790.725,0.9740,77.0,-0.073,72.6,0.542,34.1,93.1,113,75.6,5.53,4.41,6.04,535.924,2243.14,12.05,0.029,0.0478,36.3550,6.46,4.92,37.1,32.8,0.815,250,204,99,1.03,0.759,0.0425,0.0425,0.987,1033,1033,15,1,115,36.4,113.7,110.9,38.3,39.4,114,38.4,111,39.5,89.2,39.7,37.6,44.4,4.18,4.18,3.53,-2.46,0.032412,1.09569298,0.203446,3.80775757
119.00,2.333,207.620,76.184,95.170,5286.080,790.376,0.9741,77.0,-0.037,72.5,0.542,34.1,110.3,113,75.4,5.52,4.50,6.04,535.924,2242.89,12.05,0.029,0.0478,36.3550,6.46,4.92,37.1,32.8,0.818,255,209,133,1.20,1.419,0.0425,0.0425,0.986,1033,1033,15,1,115,36.4,112.3,109.6,39.4,40.4,112,39.6,109,40.6,89.2,39.7,37.6,44.4,4.18,4.18,4.99,-3.28,0.032412,1.09853620,0.203488,3.81737469
120.00,2.333,209.953,76.180,95.014,5283.788,790.027,0.9740,76.9,0.172,72.4,0.542,34.1,91.8,112,75.3,5.52,4.43,6.03,535.989,2521.45,12.05,0.029,0.0478,36.3483,6.46,6.99,37.1,32.8,0.818,255,209,99,0.98,0.789,0.0425,0.0425,0.985,1033,1033,15,1,159,0.6,115.1,112.5,36.9,38.0,113,38.6,110,39.7,89.2,39.7,37.6,44.4,4.18,4.18,4.27,-3.87,0.032413,1.10138070,0.203536,3.82699641
121.00,2.333,212.287,76.182,94.825,5281.499,789.677,0.9740,76.9,0.009,72.3,0.542,34.1,77.3,112,75.1,5.51,4.36,6.02,535.989,2778.78,12.05,0.029,0.0478,36.3483,6.46,7.59,37.1,32.8,0.817,254,207,72,0.82,0.285,0.0425,0.0425,0.985,1033,1033,15,1,160,0.3,118.4,115.7,34.5,35.7,116,36.3,113,37.6,89.2,39.7,37.6,44.4,4.18,4.18,3.42,-2.62,0.032415,1.10422342,0.203600,3.83661891
122.00,2.333,214.620,76.193,94.779,5279.209,789.328,0.9739,77.0,0.482,72.2,0.542,34.1,109.6,112,75.0,5.50,4.45,6.01,535.989,2480.28,12.05,0.029,0.0478,36.3483,6.46,5.36,37.1,32.8,0.817,253,206,131,1.20,1.352,0.0425,0.0425,0.985,1034,1034,15,1,123,30.2,115.4,112.6,37.1,38.2,115,37.4,112,38.5,89.1,39.8,37.6,44.4,4.18,4.18,4.53,-3.42,0.032418,1.10706359,0.203660,3.84624223
123.00,2.333,216.953,76.212,94.757,5276.917,788.979,0.9740,77.0,0.022,72.1,0.542,34.1,101.1,112,75.0,5.50,4.51,6.01,535.989,2243.10,12.05,0.029,0.0478,36.3483,6.46,4.92,37.1,32.8,0.818,255,209,116,1.09,1.110,0.0425,0.0425,0.986,1033,1033,15,1,115,36.4,113.6,110.9,38.4,39.5,113,38.5,111,39.6,89.2,39.7,37.6,44.4,4.19,4.19,4.69,-3.17,0.032420,1.10990514,0.203701,3.85586831
124.00,2.333,219.287,76.239,94.739,5274.627,788.630,0.9740,76.9,0.125,72.0,0.541,34.1,84.8,112,75.0,5.49,4.38,6.00,535.989,2242.89,12.05,0.029,0.0478,36.3483,6.46,4.92,37.1,32.8,0.818,255,208,86,0.90,0.541,0.0425,0.0425,0.986,1033,1033,15,1,115,36.4,112.2,109.6,39.4,40.4,112,39.6,109,40.6,89.2,39.7,37.6,44.4,4.19,4.19,3.75,-2.36,0.032421,1.11274676,0.203759,3.86549324
125.00,2.333,221.620,76.313,94.766,5272.338,788.281,0.9740,76.9,-0.061,71.9,0.541,34.1,87.3,112,75.1,5.49,4.39,6.00,536.055,2530.40,12.05,0.029,0.0479,36.3723,6.46,7.03,37.1,32.8,0.815,250,204,89,0.96,0.559,0.0425,0.0425,0.987,1033,1033,15,1,159,0.5,115.3,112.7,36.7,37.8,113,38.5,110,39.6,89.2,39.7,37.6,44.4,4.19,4.19,3.50,-3.40,0.032422,1.11558621,0.203830,3.87511591
126.00,2.333,223.953,76.360,94.789,5270.046,787.931,0.9739,77.0,-0.034,71.9,0.541,34.1,111.5,112,75.1,5.49,4.48,5.99,536.055,2778.42,12.05,0.029,0.0479,36.3723,6.46,7.57,37.1,32.8,0.818,255,208,136,1.21,1.445,0.0425,0.0425,0.988,1033,1033,15,1,160,0.3,118.3,115.6,34.5,35.7,116,36.4,113,37.6,89.1,39.8,37.6,44.4,4.19,4.19,5.09,-4.00,0.032424,1.11842520,0.203877,3.88473830
127.00,2.333,226.287,76.410,94.809,5267.754,787.582,0.9739,76.9,0.144,71.8,0.541,34.1,93.3,112,75.2,5.49,4.43,5.99,536.055,2470.18,12.05,0.029,0.0479,36.3723,6.46,5.30,37.1,32.8,0.818,255,209,102,0.99,0.838,0.0425,0.0425,0.988,1034,1034,15,1,122,30.7,115.3,112.5,37.2,38.3,115,37.4,112,38.6,89.1,39.8,37.6,44.4,4.19,4.19,4.22,-3.03,0.032427,1.12126614,0.203927,3.89436087
128.00,2.333,228.620,76.522,94.828,5265.465,787.233,0.9739,76.9,-0.032,71.7,0.540,34.1,78.7,112,75.2,5.49,4.33,5.99,536.055,2243.06,12.05,0.029,0.0479,36.3723,6.46,4.92,37.1,32.8,0.817,254,208,75,0.83,0.329,0.0425,0.0425,0.989,1033,1033,15,1,115,36.4,113.6,110.9,38.4,39.5,113,38.5,111,39.6,89.1,39.8,37.6,44.4,4.19,4.19,3.44,-2.30,0.032430,1.12410629,0.203993,3.90398047
129.00,2.333,230.953,76.581,94.839,5263.175,786.884,0.9740,77.0,0.099,71.7,0.540,34.1,107.7,112,75.2,5.49,4.42,5.98,536.055,2242.89,12.05,0.029,0.0479,36.3723,6.46,4.92,37.1,32.8,0.816,252,206,128,1.18,1.277,0.0425,0.0425,0.988,1033,1033,15,1,115,36.4,112.3,109.6,39.4,40.4,112,39.6,109,40.6,89.1,39.7,37.5,44.4,4.19,4.19,4.26,-2.86,0.032431,1.12694452,0.204060,3.91359807
130.00,2.333,233.287,76.643,94.847,5260.883,786.535,0.9739,77.0,0.004,71.6,0.540,34.1,102.9,112,75.2,5.49,4.50,5.98,536.119,2539.29,12.05,0.029,0.0479,36.3750,6.46,7.06,37.1,32.8,0.818,256,209,120,1.10,1.171,0.0425,0.0425,0.988,1033,1033,15,1,159,0.5,115.4,112.8,36.7,37.8,113,38.4,111,39.6,89.1,39.7,37.5,44.4,4.19,4.19,4.93,-4.38,0.032431,1.12978448,0.204104,3.92321681
131.00,2.333,235.620,76.705,94.856,5258.592,786.186,0.9739,76.9,0.175,71.6,0.540,34.1,86.3,112,75.3,5.49,4.36,5.98,536.119,2777.80,12.05,0.029,0.0479,36.3750,6.46,7.54,37.1,32.8,0.818,255,209,90,0.91,0.592,0.0426,0.0426,0.988,1033,1033,15,1,160,0.4,118.3,115.6,34.6,35.7,116,36.4,113,37.7,89.1,39.8,37.5,44.4,4.20,4.20,3.86,-2.95,0.032434,1.13262528,0.204163,3.93283425
132.00,2.333,237.953,76.833,94.860,5256.303,785.836,0.9738,76.9,-0.036,71.5,0.540,34.1,82.0,112,75.3,5.50,4.36,5.97,536.119,2460.01,12.05,0.029,0.0479,36.3750,6.46,5.25,37.1,32.8,0.815,251,205,80,0.89,0.392,0.0426,0.0426,0.988,1034,1034,15,1,122,31.1,115.3,112.5,37.2,38.3,115,37.4,112,38.6,89.1,39.8,37.5,44.4,4.20,4.20,3.30,-2.40,0.032437,1.13546446,0.204237,3.94244953
133.00,2.333,240.287,76.898,94.858,5254.012,785.487,0.9739,77.0,-0.032,71.5,0.540,34.1,111.9,112,75.3,5.50,4.44,5.97,536.119,2243.04,12.05,0.029,0.0479,36.3750,6.46,4.92,37.1,32.8,0.817,255,208,137,1.21,1.454,0.0426,0.0426,0.987,1033,1033,15,1,115,36.4,113.6,110.9,38.4,39.5,113,38.5,111,39.6,89.1,39.7,37.5,44.4,4.20,4.20,4.94,-3.46,0.032439,1.13830308,0.204290,3.95206486
134.00,2.333,242.620,76.963,94.847,5251.720,785.138,0.9739,76.9,0.132,71.4,0.539,34.1,94.8,112,75.3,5.50,4.42,5.97,536.119,2242.89,12.05,0.029,0.0479,36.3750,6.46,4.92,37.1,32.8,0.818,256,209,105,1.01,0.890,0.0426,0.0426,0.987,1033,1033,15,1,115,36.4,112.2,109.5,39.5,40.5,112,39.7,109,40.7,89.1,39.7,37.5,44.4,4.20,4.20,4.27,-2.69,0.032440,1.14114399,0.204340,3.96168162
135.00,2.333,244.953,77.028,94.841,5249.430,784.789,0.9739,76.9,-0.044,71.4,0.539,34.1,79.9,112,75.3,5.50,4.32,5.97,536.186,2548.10,12.05,0.029,0.0479,36.3733,6.46,7.10,37.1,32.8,0.817,255,208,78,0.84,0.372,0.0426,0.0426,0.987,1033,1033,15,1,159,0.5,115.6,112.9,36.6,37.7,113,38.3,111,39.5,89.1,39.7,37.5,44.4,4.20,4.20,3.63,-3.46,0.032442,1.14398438,0.204407,3.97129646
136.00,2.333,247.287,77.161,94.839,5247.141,784.440,0.9738,77.0,-0.069,71.3,0.539,34.1,105.0,112,75.3,5.50,4.39,5.96,536.186,2776.92,12.05,0.029,0.0479,36.3733,6.46,7.52,37.1,32.8,0.815,252,206,123,1.15,1.175,0.0426,0.0426,0.986,1033,1033,15,1,159,0.4,118.3,115.6,34.6,35.7,116,36.4,113,37.6,89.1,39.8,37.5,44.4,4.20,4.20,4.20,-3.34,0.032444,1.14682277,0.204478,3.98091020
137.00,2.333,249.620,77.228,94.837,5244.849,784.091,0.9738,77.0,-0.001,71.3,0.539,34.1,104.5,112,75.3,5.50,4.47,5.96,536.186,2449.78,12.05,0.029,0.0479,36.3733,6.46,5.19,37.1,32.8,0.818,256,210,124,1.12,1.225,0.0426,0.0426,0.986,1034,1034,15,1,121,31.6,115.2,112.5,37.2,38.3,115,37.5,112,38.7,89.0,39.8,37.5,44.4,4.20,4.20,4.91,-3.55,0.032447,1.14966257,0.204524,3.99052588
138.00,2.333,251.953,77.295,94.834,5242.558,783.742,0.9739,76.9,0.184,71.2,0.539,34.1,87.6,112,75.3,5.51,4.35,5.96,536.186,2243.01,12.05,0.029,0.0479,36.3733,6.46,4.92,37.1,32.8,0.818,256,209,92,0.92,0.637,0.0426,0.0426,0.986,1033,1033,15,1,115,36.4,113.5,110.8,38.5,39.5,113,38.6,111,39.7,89.1,39.8,37.4,44.4,4.21,4.21,3.89,-2.60,0.032449,1.15250358,0.204583,4.00014149
139.00,2.333,254.287,77.431,94.813,5240.270,783.392,0.9739,76.9,0.016,71.2,0.539,34.1,77.6,112,75.3,5.51,4.33,5.95,536.186,2242.89,12.05,0.029,0.0479,36.3733,6.46,4.92,37.1,32.8,0.816,253,206,73,0.82,0.264,0.0426,0.0426,0.985,1033,1033,15,1,115,36.4,112.2,109.6,39.4,40.5,112,39.6,109,40.7,89.1,39.7,37.4,44.4,4.21,4.21,3.22,-2.03,0.032451,1.15534311,0.204657,4.00975556
140.00,2.333,256.620,77.500,94.815,5237.979,783.043,0.9739,77.0,-0.040,71.1,0.539,34.1,111.9,112,75.4,5.51,4.41,5.95,536.252,2556.83,12.05,0.029,0.0479,36.3839,6.46,7.14,37.1,32.8,0.817,255,208,137,1.21,1.443,0.0426,0.0426,0.985,1033,1033,15,1,159,0.4,115.8,113.1,36.4,37.6,114,38.2,111,39.4,89.1,39.7,37.4,44.4,4.21,4.21,5.00,-4.56,0.032452,1.15818164,0.204715,4.01936985
141.00,2.333,258.953,77.569,94.818,5235.687,782.694,0.9738,76.9,0.098,71.1,0.538,34.1,96.4,112,75.4,5.51,4.41,5.95,536.252,2775.78,12.05,0.029,0.0479,36.3839,6.46,7.49,37.1,32.8,0.818,256,210,109,1.02,0.940,0.0426,0.0426,0.984,1033,1033,15,1,159,0.5,118.2,115.6,34.6,35.8,116,36.5,113,37.7,89.1,39.8,37.4,44.4,4.21,4.21,4.41,-3.36,0.032454,1.16102247,0.204765,4.02898627
142.00,2.333,261.287,77.638,94.817,5233.398,782.345,0.9738,76.9,-0.035,71.0,0.538,34.1,81.2,112,75.4,5.52,4.30,5.94,536.252,2439.50,12.05,0.029,0.0479,36.3839,6.46,5.14,37.1,32.8,0.817,256,209,81,0.85,0.413,0.0426,0.0426,0.984,1034,1034,15,1,121,32.0,115.2,112.4,37.3,38.4,115,37.5,112,38.7,89.0,39.8,37.4,44.4,4.21,4.21,3.57,-2.55,0.032457,1.16386301,0.204832,4.03860120
143.00,2.333,263.620,77.777,94.809,5231.109,781.996,0.9738,76.9,-0.090,71.0,0.538,34.1,101.6,112,75.4,5.52,4.36,5.94,536.252,2242.99,12.05,0.029,0.0479,36.3839,6.46,4.92,37.1,32.8,0.815,252,206,117,1.11,1.046,0.0426,0.0426,0.983,1033,1033,15,1,115,36.4,113.6,110.9,38.4,39.5,113,38.6,111,39.7,89.1,39.8,37.4,44.4,4.21,4.21,3.91,-2.75,0.032460,1.16670162,0.204906,4.04821521
144.00,2.333,265.953,77.846,94.798,5228.817,781.647,0.9739,77.0,-0.022,70.9,0.538,34.1,106.2,112,75.4,5.52,4.44,5.94,536.252,2242.89,12.05,0.029,0.0479,36.3839,6.46,4.92,37.1,32.8,0.818,257,210,127,1.13,1.278,0.0426,0.0426,0.983,1033,1033,15,1,115,36.4,112.2,109.5,39.5,40.5,112,39.7,109,40.7,89.1,39.7,37.4,44.4,4.21,4.21,4.92,-3.18,0.032460,1.16954130,0.204953,4.05783114
145.00,2.333,268.287,77.916,94.791,5226.526,781.298,0.9739,76.9,0.200,70.9,0.538,34.1,89.0,112,75.4,5.52,4.34,5.94,536.318,2565.48,12.05,0.029,0.0479,36.3668,6.46,7.18,37.1,32.8,0.817,256,210,95,0.94,0.683,0.0426,0.0426,0.982,1033,1033,15,1,159,0.4,115.8,113.2,36.4,37.5,114,38.2,111,39.3,89.1,39.7,37.4,44.4,4.21,4.21,4.11,-3.83,0.032462,1.17238242,0.205012,4.06744757
146.00,2.333,270.620,78.056,95.206,5224.238,780.949,0.9738,76.9,0.016,70.5,0.535,34.1,78.6,112,75.5,5.50,4.31,5.92,536.318,2774.38,12.05,0.029,0.0479,36.3668,6.46,7.47,37.1,32.8,0.815,253,207,75,0.83,0.299,0.0426,0.0426,0.990,1033,1033,15,1,159,0.5,118.2,115.6,34.6,35.8,116,36.4,113,37.7,89.0,39.8,37.4,44.4,4.22,4.22,3.31,-2.54,0.032464,1.17522235,0.205086,4.07706264
147.00,2.333,272.953,78.114,95.590,5221.946,780.599,0.9738,77.0,-0.036,70.0,0.533,34.1,112.4,112,76.3,5.47,4.40,5.91,536.318,2429.18,12.05,0.029,0.0479,36.3668,6.46,5.08,37.1,32.8,0.817,256,209,138,1.21,1.470,0.0426,0.0426,1.001,1034,1034,15,1,120,32.4,115.1,112.4,37.3,38.4,115,37.5,112,38.7,89.0,39.8,37.3,44.4,4.22,4.22,5.00,-3.70,0.032467,1.17806321,0.205139,4.08667980
148.00,2.333,275.287,78.153,95.609,5219.655,780.250,0.9738,76.9,0.161,69.8,0.532,34.1,93.0,112,76.5,5.46,4.35,5.90,536.318,2242.98,12.05,0.029,0.0479,36.3668,6.46,4.92,37.1,32.8,0.818,257,210,102,0.99,0.826,0.0426,0.0426,1.003,1033,1033,15,1,115,36.4,113.5,110.8,38.5,39.6,113,38.6,111,39.7,89.0,39.8,37.3,44.4,4.22,4.22,4.17,-2.78,0.032469,1.18090828,0.205189,4.09630187
149.00,2.333,277.620,78.176,95.280,5217.367,779.901,0.9739,76.9,0.033,69.7,0.532,34.1,77.2,112,76.3,5.45,4.29,5.89,536.318,2242.89,12.05,0.029,0.0479,36.3668,6.46,4.92,37.1,32.8,0.816,256,209,73,0.81,0.276,0.0426,0.0426,1.002,1033,1033,15,1,115,36.4,112.2,109.5,39.5,40.5,112,39.7,109,40.7,89.1,39.7,37.3,44.4,4.22,4.22,3.34,-2.07,0.032471,1.18375317,0.205257,4.10592617
150.00,2.333,279.953,78.172,95.098,5215.077,779.552,0.9738,77.0,-0.079,69.6,0.532,34.1,111.5,112,76.1,5.44,4.38,5.88,536.385,2574.02,12.05,0.029,0.0479,36.3845,6.46,7.21,37.1,32.8,0.817,255,208,136,1.21,1.422,0.0426,0.0426,1.001,1033,1033,15,1,159,0.4,116.0,113.4,36.3,37.4,114,38.1,111,39.2,89.0,39.7,37.3,44.4,4.22,4.22,4.94,-4.46,0.032472,1.18659631,0.205316,4.11555450
151.00,2.333,282.287,78.165,94.945,5212.787,779.203,0.9737,76.9,0.098,69.6,0.533,34.1,95.4,112,75.9,5.44,4.37,5.88,536.385,2772.72,12.05,0.029,0.0479,36.3845,6.46,7.44,37.1,32.8,0.818,257,210,107,1.02,0.904,0.0426,0.0426,1.000,1033,1033,15,1,159,0.6,118.2,115.5,34.7,35.9,116,36.5,113,37.7,89.0,39.8,37.3,44.4,4.22,4.22,4.39,-3.28,0.032474,1.18944124,0.205363,4.12518898
152.00,2.333,284.620,78.159,94.737,5210.499,778.854,0.9737,76.9,-0.032,69.4,0.532,34.1,79.1,112,75.7,5.43,4.27,5.86,536.385,2418.81,12.05,0.029,0.0479,36.3845,6.46,5.03,37.1,32.8,0.817,256,209,77,0.83,0.337,0.0427,0.0427,0.999,1034,1034,15,1,120,32.7,115.1,112.4,37.4,38.5,115,37.6,112,38.7,89.0,39.8,37.3,44.4,4.22,4.22,3.50,-2.40,0.032477,1.19228492,0.205429,4.13482463
153.00,2.333,286.953,78.165,94.680,5208.210,778.505,0.9738,76.9,0.668,69.4,0.532,34.1,109.2,111,75.7,5.42,4.36,5.86,536.385,2242.96,12.05,0.029,0.0479,36.3845,6.46,4.92,37.1,32.8,0.816,254,208,132,1.19,1.326,0.0427,0.0427,1.000,1033,1033,15,1,115,36.4,113.5,110.8,38.5,39.6,113,38.7,111,39.7,89.0,39.8,37.3,44.5,4.23,4.23,4.53,-3.09,0.032480,1.19512580,0.205494,4.14446131
154.00,2.333,289.287,78.179,94.643,5205.919,778.156,0.9738,76.9,0.045,69.3,0.532,34.1,98.4,111,75.7,5.42,4.40,5.85,536.385,2242.89,12.05,0.029,0.0479,36.3845,6.46,4.92,37.1,32.8,0.818,257,210,112,1.05,1.004,0.0427,0.0427,1.000,1033,1033,15,1,115,36.4,112.1,109.4,39.6,40.6,112,39.8,109,40.8,89.0,39.7,37.3,44.5,4.23,4.23,4.53,-2.77,0.032480,1.19796814,0.205540,4.15410124
155.00,2.333,291.620,78.200,94.629,5203.631,777.807,0.9738,76.9,-0.027,69.2,0.532,34.1,81.5,111,75.7,5.41,4.27,5.85,536.451,2582.47,12.05,0.029,0.0479,36.3892,6.46,7.25,37.1,32.8,0.817,256,209,81,0.85,0.419,0.0427,0.0427,1.001,1033,1033,15,1,159,0.4,116.1,113.4,36.2,37.3,114,38.0,111,39.2,89.0,39.7,37.3,44.5,4.23,4.23,3.75,-3.49,0.032482,1.20081008,0.205605,4.16373976
156.00,2.333,293.953,78.266,94.648,5201.343,777.458,0.9737,76.9,-0.069,69.1,0.532,34.1,104.9,111,75.7,5.41,4.33,5.84,536.451,2770.80,12.05,0.029,0.0479,36.3892,6.46,7.41,37.1,32.8,0.815,254,207,123,1.14,1.163,0.0427,0.0427,1.002,1033,1033,15,1,159,0.8,118.2,115.5,34.7,35.9,116,36.5,113,37.7,88.9,39.8,37.3,44.5,4.23,4.23,4.25,-3.29,0.032484,1.20364941,0.205676,4.17337645
157.00,2.333,296.287,78.308,94.664,5199.052,777.109,0.9737,77.0,0.017,69.0,0.532,34.1,101.7,111,75.7,5.41,4.41,5.84,536.451,2408.41,12.05,0.029,0.0479,36.3892,6.46,4.97,37.1,32.8,0.818,258,211,119,1.08,1.118,0.0427,0.0427,1.003,1034,1034,15,1,120,33.1,115.1,112.3,37.4,38.5,115,37.6,112,38.8,88.9,39.8,37.3,44.5,4.23,4.23,4.78,-3.34,0.032487,1.20649000,0.205722,4.18301434
158.00,2.333,298.620,78.355,94.681,5196.763,776.759,0.9737,76.9,0.070,69.0,0.531,34.1,84.1,111,75.8,5.41,4.27,5.84,536.451,2242.95,12.05,0.029,0.0479,36.3892,6.46,4.92,37.1,32.8,0.817,257,210,86,0.88,0.509,0.0427,0.0427,1.003,1033,1033,15,1,115,36.5,113.5,110.7,38.6,39.7,113,38.7,111,39.8,88.9,39.8,37.3,44.5,4.23,4.23,3.74,-2.39,0.032490,1.20933131,0.205785,4.19265045
159.00,2.333,300.953,78.462,94.701,5194.476,776.410,0.9738,76.9,-0.077,68.9,0.531,34.1,97.7,111,75.8,5.40,4.31,5.83,536.451,2242.89,12.05,0.029,0.0479,36.3892,6.46,4.92,37.1,32.8,0.814,253,206,110,1.06,0.901,0.0427,0.0427,1.003,1033,1033,15,1,115,36.5,112.2,109.5,39.6,40.6,112,39.8,109,40.8,88.9,39.7,37.2,44.5,4.23,4.23,3.73,-2.36,0.032492,1.21217044,0.205861,4.20228376
160.00,2.333,303.287,78.520,94.718,5192.185,776.061,0.9737,77.0,-0.022,68.8,0.531,34.1,105.1,111,75.8,5.41,4.40,5.83,536.518,2590.82,12.05,0.029,0.0479,36.4159,6.46,7.28,37.1,32.8,0.817,258,211,125,1.12,1.233,0.0427,0.0427,1.003,1033,1033,15,1,159,0.4,116.3,113.6,36.1,37.2,114,38.0,111,39.1,88.9,39.8,37.2,44.5,4.23,4.23,5.10,-4.50,0.032492,1.21501026,0.205909,4.21191762
161.00,2.333,305.620,78.580,94.735,5189.896,775.712,0.9736,76.9,0.184,68.8,0.531,34.1,86.9,111,75.9,5.41,4.28,5.83,536.518,2768.61,12.05,0.029,0.0479,36.4159,6.46,7.38,37.1,32.8,0.817,257,210,91,0.91,0.602,0.0427,0.0427,1.003,1033,1033,15,1,159,0.9,118.1,115.4,34.8,36.0,116,36.6,113,37.8,88.9,39.8,37.2,44.5,4.24,4.24,3.91,-2.89,0.032495,1.21785158,0.205971,4.22155070
162.00,2.333,307.953,78.704,94.749,5187.608,775.363,0.9736,76.9,-0.061,68.7,0.530,34.1,87.7,111,75.9,5.41,4.28,5.82,536.518,2397.99,12.05,0.029,0.0479,36.4159,6.46,4.92,37.1,32.8,0.814,253,206,91,0.95,0.562,0.0427,0.0427,1.003,1034,1034,15,1,119,33.4,115.1,112.3,37.4,38.5,115,37.6,112,38.8,88.8,39.8,37.2,44.5,4.24,4.24,3.46,-2.43,0.032499,1.22069109,0.206048,4.23118122
163.00,2.333,310.287,78.767,94.751,5185.318,775.014,0.9737,76.9,-0.030,68.7,0.530,34.1,108.6,111,75.9,5.41,4.38,5.82,536.518,2242.94,12.05,0.029,0.0479,36.4159,6.46,4.92,37.1,32.8,0.817,258,211,132,1.16,1.347,0.0427,0.0427,1.003,1033,1033,15,1,115,36.5,113.5,110.7,38.6,39.7,113,38.8,111,39.8,88.9,39.8,37.2,44.5,4.24,4.24,5.03,-3.36,0.032501,1.22353054,0.206100,4.24081219
164.00,2.333,312.620,78.830,94.743,5183.028,774.665,0.9737,76.9,0.206,68.6,0.530,34.1,89.6,111,75.9,5.41,4.29,5.82,536.518,2242.89,12.05,0.029,0.0479,36.4159,6.46,4.92,37.1,32.8,0.817,258,210,97,0.94,0.696,0.0427,0.0427,1.003,1033,1033,15,1,115,36.5,112.1,109.4,39.6,40.6,112,39.9,109,40.9,88.9,39.7,37.2,44.5,4.24,4.24,4.01,-2.41,0.032502,1.22637210,0.206159,4.25044379
165.00,2.333,314.953,78.959,94.738,5180.741,774.316,0.9737,76.9,0.002,68.6,0.530,34.1,78.1,111,75.9,5.41,4.26,5.81,536.585,2599.05,12.05,0.029,0.0479,36.4112,6.46,7.31,37.1,32.8,0.815,255,207,74,0.82,0.275,0.0427,0.0427,1.002,1033,1033,15,1,159,0.4,116.4,113.7,36.0,37.1,114,37.9,111,39.0,88.9,39.8,37.2,44.5,4.24,4.24,3.42,-3.26,0.032504,1.22921224,0.206235,4.26007329
166.00,2.333,317.287,79.024,94.738,5178.451,773.967,0.9736,76.9,-0.039,68.5,0.530,34.1,111.2,111,75.9,5.42,4.35,5.81,536.585,2766.17,12.05,0.029,0.0479,36.4112,6.46,7.35,37.1,32.8,0.817,257,210,137,1.19,1.416,0.0427,0.0427,1.002,1033,1033,15,1,159,1.1,118.1,115.3,34.9,36.0,116,36.6,113,37.8,88.8,39.9,37.2,44.5,4.24,4.24,5.05,-3.87,0.032506,1.23205138,0.206294,4.26970298
167.00,2.333,319.620,79.090,94.735,5176.161,773.618,0.9736,76.9,0.181,68.5,0.530,34.1,92.4,111,75.9,5.42,4.30,5.81,536.585,2387.54,12.05,0.029,0.0479,36.4112,6.46,4.86,37.1,32.8,0.817,258,211,102,0.97,0.794,0.0427,0.0427,1.002,1034,1034,15,1,119,33.7,115.0,112.2,37.5,38.6,115,37.7,112,38.8,88.8,39.9,37.2,44.5,4.24,4.24,4.19,-2.89,0.032509,1.23489292,0.206350,4.27933444
168.00,2.333,321.953,79.222,94.702,5173.873,773.269,0.9736,76.9,0.025,68.4,0.530,34.1,77.1,111,76.0,5.42,4.24,5.81,536.585,2242.93,12.05,0.029,0.0479,36.4112,6.46,4.92,37.1,32.8,0.816,257,210,73,0.80,0.263,0.0427,0.0427,1.001,1033,1033,15,1,115,36.5,113.4,110.7,38.6,39.7,113,38.8,110,39.8,88.8,39.8,37.1,44.5,4.24,4.24,3.36,-2.13,0.032513,1.23773355,0.206424,4.28896413
169.00,2.333,324.287,79.288,94.709,5171.584,772.920,0.9737,76.9,-0.065,68.4,0.530,34.1,110.9,111,75.9,5.42,4.33,5.80,536.585,2242.89,12.05,0.029,0.0479,36.4112,6.46,4.92,37.1,32.8,0.816,256,209,136,1.19,1.396,0.0427,0.0427,1.000,1033,1033,15,1,115,36.5,112.1,109.4,39.6,40.6,112,39.8,109,40.9,88.9,39.8,37.1,44.5,4.25,4.25,4.75,-3.04,0.032514,1.24057255,0.206489,4.29859358
170.00,2.333,326.620,79.356,94.713,5169.294,772.571,0.9737,76.9,0.117,68.3,0.529,34.1,95.4,111,76.0,5.42,4.32,5.80,536.649,2607.17,12.05,0.029,0.0479,36.4287,6.47,7.35,37.1,32.8,0.817,258,211,108,1.00,0.896,0.0427,0.0427,1.000,1033,1033,15,1,159,0.4,116.5,113.8,36.0,37.1,114,37.8,111,39.0,88.9,39.8,37.1,44.5,4.25,4.25,4.50,-4.06,0.032515,1.24341398,0.206542,4.30822546
171.00,2.333,328.953,79.491,94.716,5167.006,772.222,0.9736,76.9,-0.032,68.3,0.529,34.1,79.4,111,76.0,5.43,4.21,5.80,536.649,2763.47,12.05,0.029,0.0479,36.4287,6.47,7.32,37.1,32.8,0.816,257,210,78,0.82,0.342,0.0428,0.0428,1.000,1033,1033,15,1,158,1.4,118.0,115.3,34.9,36.1,116,36.6,113,37.8,88.8,39.8,37.1,44.5,4.25,4.25,3.51,-2.58,0.032518,1.24625500,0.206614,4.31785582
172.00,2.333,331.287,79.559,94.712,5164.718,771.873,0.9735,76.9,0.668,68.2,0.529,34.1,109.0,111,76.0,5.43,4.30,5.79,536.649,2377.09,12.05,0.029,0.0479,36.4287,6.47,4.81,37.1,32.8,0.815,256,208,132,1.17,1.314,0.0428,0.0428,0.999,1034,1034,15,1,118,34.0,115.0,112.2,37.5,38.6,115,37.7,112,38.8,88.8,39.9,37.1,44.5,4.25,4.25,4.58,-3.31,0.032521,1.24909402,0.206685,4.32748560
173.00,2.333,333.620,79.626,94.707,5162.428,771.524,0.9736,76.9,0.065,68.2,0.529,34.1,98.4,111,76.0,5.43,4.34,5.79,536.649,2242.93,12.05,0.029,0.0479,36.4287,6.47,4.92,37.1,32.8,0.817,259,211,114,1.04,1.001,0.0428,0.0428,0.999,1033,1033,15,1,115,36.5,113.4,110.6,38.7,39.7,113,38.8,110,39.9,88.8,39.8,37.1,44.5,4.25,4.25,4.55,-2.93,0.032523,1.25193523,0.206736,4.33711810
174.00,2.333,335.953,79.694,94.694,5160.140,771.175,0.9736,76.9,-0.036,68.2,0.529,34.1,81.8,111,76.0,5.43,4.21,5.79,536.649,2242.89,12.05,0.029,0.0479,36.4287,6.47,4.92,37.1,32.8,0.816,258,210,83,0.85,0.423,0.0428,0.0428,0.999,1033,1033,15,1,115,36.5,112.0,109.3,39.7,40.7,112,39.9,109,40.9,88.8,39.8,37.1,44.5,4.25,4.25,3.59,-2.14,0.032525,1.25477667,0.206806,4.34674954
175.00,2.333,338.287,79.830,94.684,5157.852,770.826,0.9736,76.9,-0.016,68.1,0.529,34.1,104.7,111,76.0,5.44,4.28,5.78,536.714,2615.16,12.05,0.029,0.0479,36.4199,6.47,7.38,37.1,32.8,0.815,255,207,124,1.13,1.151,0.0428,0.0428,0.998,1033,1033,15,1,159,0.3,116.7,113.9,35.8,37.0,114,37.7,112,38.9,88.8,39.8,37.1,44.5,4.25,4.25,4.32,-4.03,0.032527,1.25761592,0.206882,4.35638006
176.00,2.333,340.620,79.899,94.685,5155.562,770.477,0.9735,76.9,0.021,68.1,0.529,34.1,101.6,111,76.0,5.44,4.35,5.78,536.714,2760.51,12.05,0.029,0.0479,36.4199,6.47,7.28,37.1,32.8,0.817,259,211,120,1.07,1.110,0.0428,0.0428,0.998,1033,1033,15,1,158,1.7,117.9,115.2,35.0,36.1,116,36.6,113,37.9,88.8,39.9,37.0,44.5,4.25,4.25,4.80,-3.56,0.032529,1.26045668,0.206932,4.36601302
177.00,2.333,342.953,79.967,94.684,5153.273,770.128,0.9735,76.9,0.009,68.0,0.529,34.1,84.3,111,76.0,5.44,4.22,5.78,536.714,2366.63,12.05,0.029,0.0479,36.4199,6.47,4.76,37.1,32.8,0.816,258,211,87,0.88,0.509,0.0428,0.0428,0.997,1034,1034,15,1,118,34.3,114.9,112.1,37.6,38.7,115,37.7,112,38.9,88.8,39.9,37.0,44.5,4.26,4.26,3.76,-2.56,0.032532,1.26329831,0.206999,4.37564569
178.00,2.333,345.287,80.105,95.097,5150.986,769.779,0.9736,76.9,-0.090,67.7,0.527,34.1,102.7,111,76.0,5.42,4.26,5.77,536.714,2242.92,12.05,0.029,0.0479,36.4199,6.47,4.92,37.1,32.8,0.814,254,207,120,1.11,1.075,0.0428,0.0428,1.005,1033,1033,15,1,115,36.5,113.4,110.7,38.7,39.7,113,38.8,110,39.9,88.8,39.8,37.0,44.5,4.26,4.26,4.02,-2.71,0.032535,1.26613820,0.207075,4.38527733
179.00,2.333,347.620,80.162,95.512,5148.695,769.430,0.9736,76.9,0.021,67.2,0.524,34.1,101.6,112,76.9,5.39,4.33,5.76,536.714,2242.89,12.05,0.029,0.0479,36.4199,6.47,4.92,37.1,32.8,0.817,259,212,119,1.07,1.113,0.0428,0.0428,1.016,1033,1033,15,1,115,36.5,112.0,109.3,39.7,40.7,112,39.9,109,40.9,88.8,39.8,37.0,44.5,4.26,4.26,4.70,-2.86,0.032536,1.26898158,0.207122,4.39491334
180.00,2.333,349.953,80.199,95.539,5146.407,769.081,0.9736,76.9,-0.022,67.0,0.523,34.1,82.9,112,77.1,5.38,4.19,5.75,536.780,2623.03,12.05,0.029,0.0479,36.4296,6.47,7.41,37.1,32.8,0.816,258,211,84,0.86,0.461,0.0428,0.0428,1.019,1033,1033,15,1,159,0.3,116.7,114.0,35.8,36.9,114,37.7,112,38.8,88.8,39.8,37.0,44.5,4.26,4.26,3.79,-3.53,0.032538,1.27182764,0.207187,4.40455223
181.00,2.333,352.287,80.217,95.233,5144.120,768.732,0.9735,76.9,0.271,66.9,0.523,34.1,107.7,112,76.9,5.37,4.27,5.73,536.780,2757.30,12.05,0.029,0.0479,36.4296,6.47,7.25,37.1,32.8,0.815,256,208,129,1.16,1.261,0.0428,0.0428,1.017,1033,1033,15,1,158,2.0,117.9,115.2,35.0,36.2,116,36.6,113,37.9,88.7,39.9,37.0,44.5,4.26,4.26,4.50,-3.46,0.032541,1.27467212,0.207256,4.41419439
182.00,2.333,354.620,80.208,95.050,5141.830,768.383,0.9735,76.9,0.065,66.8,0.523,34.1,97.7,111,76.8,5.36,4.30,5.73,536.780,2356.17,12.05,0.029,0.0479,36.4296,6.47,4.71,37.1,32.8,0.817,259,212,112,1.03,0.973,0.0428,0.0428,1.016,1034,1034,15,1,118,34.5,114.9,112.1,37.6,38.7,115,37.8,112,38.9,88.7,39.9,37.0,44.5,4.26,4.26,4.53,-3.11,0.032544,1.27751846,0.207303,4.42384387
183.00,2.333,356.953,80.184,94.747,5139.543,768.034,0.9735,76.8,-0.032,66.7,0.523,34.1,79.8,111,76.5,5.35,4.18,5.72,536.780,2242.92,12.05,0.029,0.0479,36.4296,6.47,4.92,37.1,32.8,0.816,258,211,79,0.83,0.351,0.0428,0.0428,1.015,1033,1033,15,1,115,36.5,113.3,110.6,38.7,39.8,113,38.9,110,40.0,88.7,39.8,37.0,44.5,4.26,4.26,3.53,-2.23,0.032546,1.28036424,0.207371,4.43349609
184.00,2.333,359.287,80.176,94.657,5137.256,767.685,0.9735,76.9,-0.009,66.7,0.523,34.1,109.9,111,76.4,5.34,4.28,5.71,536.780,2242.89,12.05,0.029,0.0479,36.4296,6.47,4.92,37.1,32.8,0.815,257,210,134,1.18,1.348,0.0428,0.0428,1.015,1033,1033,15,1,115,36.5,112.0,109.3,39.7,40.7,112,40.0,109,41.0,88.7,39.8,37.0,44.5,4.26,4.26,4.67,-2.99,0.032548,1.28320706,0.207437,4.44315069
185.00,2.333,361.620,80.174,94.597,5134.968,767.336,0.9735,76.9,0.117,66.6,0.523,34.1,94.4,111,76.3,5.34,4.26,5.71,536.843,2630.76,12.05,0.029,0.0480,36.4553,6.47,7.43,37.1,32.8,0.817,259,212,106,0.99,0.853,0.0428,0.0428,1.015,1033,1033,15,1,159,0.3,116.8,114.1,35.7,36.9,115,37.6,112,38.8,88.7,39.8,37.0,44.5,4.27,4.27,4.47,-4.03,0.032548,1.28605147,0.207487,4.45280976
186.00,2.333,363.953,80.192,94.549,5132.682,766.987,0.9734,76.8,0.025,66.5,0.523,34.1,77.4,111,76.3,5.33,4.19,5.70,536.843,2753.83,12.05,0.029,0.0480,36.4553,6.47,7.21,37.1,32.8,0.815,258,211,74,0.80,0.268,0.0428,0.0428,1.016,1033,1033,15,1,157,2.4,117.8,115.1,35.1,36.3,116,36.7,113,37.9,88.6,39.9,36.9,44.5,4.27,4.27,3.43,-2.50,0.032552,1.28889453,0.207558,4.46246798
187.00,2.333,366.287,80.212,94.545,5130.394,766.638,0.9734,76.9,-0.031,66.4,0.523,34.1,110.7,111,76.3,5.33,4.29,5.69,536.843,2345.72,12.05,0.029,0.0480,36.4553,6.47,4.66,37.1,32.8,0.816,258,210,136,1.19,1.383,0.0429,0.0429,1.017,1034,1034,15,1,117,34.8,114.8,112.0,37.6,38.8,115,37.8,112,38.9,88.6,39.9,36.9,44.5,4.27,4.27,4.98,-3.56,0.032555,1.29173536,0.207619,4.47212616
188.00,2.333,368.620,80.239,94.549,5128.105,766.289,0.9734,76.8,0.181,66.4,0.523,34.1,91.5,111,76.3,5.32,4.23,5.69,536.843,2242.91,12.05,0.029,0.0480,36.4553,6.47,4.92,37.1,32.8,0.816,259,212,101,0.96,0.751,0.0429,0.0429,1.018,1033,1033,15,1,115,36.5,113.2,110.5,38.8,39.9,113,38.9,110,40.0,88.6,39.8,36.9,44.5,4.27,4.27,4.16,-2.65,0.032557,1.29457835,0.207674,4.48178593
189.00,2.333,370.953,80.310,94.562,5125.820,765.940,0.9735,76.8,0.002,66.2,0.522,34.1,78.6,111,76.4,5.32,4.19,5.69,536.843,2242.89,12.05,0.029,0.0480,36.4553,6.47,4.92,37.1,32.8,0.814,256,209,76,0.82,0.281,0.0429,0.0429,1.019,1033,1033,15,1,115,36.5,111.9,109.2,39.8,40.8,112,40.0,109,41.0,88.7,39.8,36.9,44.5,4.27,4.27,3.31,-1.96,0.032559,1.29741985,0.207749,4.49144284
190.00,2.333,373.287,80.354,94.576,5123.531,765.591,0.9734,76.9,-0.034,66.2,0.522,34.1,109.1,111,76.4,5.32,4.29,5.68,536.906,2638.36,12.05,0.029,0.0480,36.4679,6.47,7.46,37.1,32.8,0.816,259,212,134,1.16,1.346,0.0429,0.0429,1.019,1033,1033,15,1,159,0.3,116.9,114.2,35.7,36.8,115,37.5,112,38.7,88.6,39.9,36.9,44.5,4.27,4.27,5.21,-4.64,0.032560,1.30026015,0.207806,4.50109918
191.00,2.333,375.620,80.401,94.595,5121.243,765.242,0.9733,76.8,0.213,66.2,0.522,34.1,88.8,111,76.4,5.32,4.20,5.68,536.906,2750.11,12.05,0.029,0.0480,36.4679,6.47,7.17,37.1,32.8,0.816,260,212,96,0.93,0.657,0.0429,0.0429,1.019,1034,1034,15,1,157,2.8,117.7,114.9,35.2,36.4,116,36.8,113,38.0,88.6,39.9,36.9,44.5,4.27,4.27,4.03,-2.96,0.032563,1.30310264,0.207865,4.51075578
192.00,2.333,377.953,80.505,94.620,5118.957,764.893,0.9733,76.8,-0.060,66.1,0.522,34.1,88.0,111,76.5,5.32,4.20,5.68,536.906,2335.29,12.05,0.029,0.0480,36.4679,6.47,4.60,37.1,32.8,0.814,255,207,93,0.94,0.564,0.0429,0.0429,1.019,1034,1034,15,1,117,35.1,114.8,112.0,37.7,38.8,115,37.8,112,39.0,88.5,39.9,36.9,44.5,4.27,4.27,3.51,-2.44,0.032568,1.30594333,0.207944,4.52040935
193.00,2.333,380.287,80.560,94.627,5116.668,764.544,0.9734,76.9,-0.018,66.0,0.522,34.1,105.6,111,76.5,5.32,4.30,5.67,536.906,2242.91,12.05,0.029,0.0480,36.4679,6.47,4.92,37.1,32.8,0.816,260,212,127,1.11,1.236,0.0429,0.0429,1.019,1033,1033,15,1,115,36.5,113.2,110.4,38.8,39.9,113,39.0,110,40.0,88.6,39.9,36.9,44.5,4.28,4.28,4.99,-3.27,0.032570,1.30878397,0.207998,4.53006322
194.00,2.333,382.620,80.617,94.627,5114.380,764.195,0.9734,76.8,0.143,66.0,0.522,34.1,86.1,111,76.5,5.32,4.18,5.67,536.906,2242.89,12.05,0.029,0.0480,36.4679,6.47,4.92,37.1,32.8,0.816,260,212,91,0.89,0.565,0.0429,0.0429,1.019,1033,1033,15,1,115,36.5,111.8,109.1,39.8,40.8,112,40.1,109,41.1,88.6,39.8,36.9,44.5,4.28,4.28,3.84,-2.29,0.032571,1.31162649,0.208061,4.53971691
195.00,2.333,384.953,80.734,94.632,5112.095,763.846,0.9734,76.9,-0.082,65.9,0.521,34.1,97.7,111,76.5,5.32,4.21,5.67,536.968,2645.80,12.05,0.029,0.0480,36.4836,6.47,7.49,37.1,32.8,0.814,255,208,111,1.05,0.891,0.0429,0.0429,1.019,1033,1033,15,1,160,0.3,117.0,114.3,35.6,36.7,115,37.4,112,38.6,88.6,39.9,36.8,44.5,4.28,4.28,3.97,-3.73,0.032574,1.31446690,0.208140,4.54936814
196.00,2.333,387.287,80.795,94.634,5109.805,763.497,0.9732,76.9,0.006,65.9,0.521,34.1,102.3,111,76.5,5.32,4.30,5.67,536.968,2746.13,12.05,0.029,0.0480,36.4836,6.47,7.14,37.1,32.8,0.816,260,213,121,1.07,1.122,0.0429,0.0429,1.019,1034,1034,15,1,156,3.3,117.6,114.9,35.3,36.4,116,36.8,113,38.0,88.5,40.0,36.8,44.5,4.28,4.28,4.86,-3.59,0.032576,1.31730812,0.208192,4.55902085
197.00,2.333,389.620,80.855,94.633,5107.518,763.148,0.9732,76.8,0.009,65.9,0.521,34.1,83.6,111,76.5,5.33,4.16,5.66,536.968,2324.89,12.05,0.029,0.0480,36.4836,6.47,4.55,37.1,32.8,0.816,260,212,86,0.87,0.477,0.0429,0.0429,1.019,1034,1034,15,1,117,35.3,114.7,111.9,37.7,38.9,115,37.9,112,39.0,88.5,40.0,36.8,44.5,4.28,4.28,3.73,-2.52,0.032580,1.32015058,0.208260,4.56867302
198.00,2.333,391.953,80.979,94.604,5105.232,762.799,0.9733,76.9,-0.016,65.7,0.521,34.1,104.6,111,76.6,5.32,4.21,5.66,536.968,2242.91,12.05,0.029,0.0480,36.4836,6.47,4.92,37.1,32.8,0.814,256,209,125,1.12,1.140,0.0429,0.0429,1.019,1033,1033,15,1,115,36.6,113.2,110.4,38.8,39.9,113,39.0,110,40.0,88.5,39.9,36.8,44.5,4.28,4.28,4.22,-2.84,0.032583,1.32299077,0.208337,4.57832349
199.00,2.333,394.287,81.042,94.610,5102.943,762.450,0.9733,76.9,0.034,65.8,0.521,34.1,99.0,111,76.5,5.33,4.26,5.66,536.968,2244.33,12.05,0.029,0.0480,36.5023,6.47,5.03,37.1,32.8,0.816,261,213,115,1.04,1.010,0.0429,0.0429,1.018,1033,1033,15,1,115,36.5,111.8,109.1,39.9,40.9,112,40.1,109,41.1,88.5,39.8,36.8,44.5,4.28,4.28,4.59,-2.81,0.032584,1.32583264,0.208389,4.58797627
200.00,2.333,396.620,81.106,94.614,5100.656,762.101,0.9733,76.8,-0.040,65.7,0.521,34.1,81.2,111,76.6,5.33,4.13,5.66,537.019,2653.09,12.05,0.029,0.0480,36.5023,6.47,7.51,37.1,32.8,0.815,260,212,82,0.84,0.393,0.0429,0.0429,1.018,1033,1033,15,1,160,0.3,117.0,114.3,35.5,36.7,115,37.4,112,38.6,88.5,39.9,36.8,44.5,4.28,4.28,3.72,-3.44,0.032586,1.32867497,0.208460,4.59762795
201.00,2.333,398.953,81.234,94.617,5098.370,761.752,0.9732,76.9,0.668,65.7,0.521,34.1,108.6,111,76.6,5.33,4.22,5.65,537.019,2741.90,12.05,0.029,0.0480,36.5023,6.47,7.10,37.1,32.8,0.815,258,210,133,1.16,1.290,0.0429,0.0429,1.017,1034,1034,15,1,155,3.9,117.5,114.8,35.3,36.5,116,36.8,113,38.0,88.5,40.0,36.8,44.5,4.29,4.29,4.67,-3.56,0.032589,1.33151508,0.208534,4.60727868
202.00,2.333,401.287,81.299,94.614,5096.081,761.403,0.9732,76.8,0.114,65.6,0.520,34.1,96.0,111,76.6,5.33,4.23,5.65,537.019,2314.52,12.05,0.029,0.0480,36.5023,6.47,4.50,37.1,32.8,0.816,261,213,110,1.00,0.902,0.0429,0.0429,1.017,1034,1034,15,1,117,35.5,114.6,111.8,37.8,38.9,114,37.9,112,39.1,88.4,40.0,36.8,44.5,4.29,4.29,4.43,-3.01,0.032592,1.33435745,0.208588,4.61693210
203.00,2.333,403.620,81.429,94.591,5093.795,761.054,0.9732,76.8,0.007,65.5,0.520,34.1,78.8,111,76.6,5.34,4.13,5.64,537.019,2242.90,12.05,0.029,0.0480,36.5023,6.47,4.92,37.1,32.8,0.815,260,212,78,0.81,0.311,0.0430,0.0430,1.017,1033,1033,15,1,115,36.6,113.1,110.4,38.9,39.9,113,39.0,110,40.1,88.5,39.9,36.7,44.5,4.29,4.29,3.46,-2.17,0.032595,1.33719962,0.208662,4.62658409
204.00,2.333,405.953,81.494,94.587,5091.508,760.705,0.9733,76.9,-0.043,65.5,0.520,34.1,110.3,111,76.6,5.34,4.23,5.64,537.019,2247.01,12.05,0.029,0.0480,36.5040,6.47,5.14,37.1,32.8,0.815,259,211,136,1.17,1.360,0.0430,0.0430,1.016,1033,1033,15,1,116,36.2,111.8,109.1,39.8,40.8,112,40.1,109,41.1,88.5,39.9,36.7,44.5,4.29,4.29,4.79,-3.10,0.032597,1.34003987,0.208731,4.63623580
205.00,2.333,408.287,81.560,94.585,5089.220,760.357,0.9733,76.8,0.174,65.5,0.520,34.1,93.0,111,76.6,5.34,4.19,5.64,537.068,2660.23,12.05,0.029,0.0480,36.5040,6.47,7.54,37.1,32.8,0.816,261,213,104,0.97,0.799,0.0430,0.0430,1.016,1033,1033,15,1,160,0.3,117.1,114.4,35.5,36.6,115,37.4,112,38.6,88.5,39.9,36.7,44.5,4.29,4.29,4.37,-3.93,0.032598,1.34288261,0.208788,4.64589003
206.00,2.333,410.620,81.693,94.586,5086.934,760.008,0.9732,76.8,0.058,65.4,0.520,34.1,76.6,111,76.6,5.34,4.13,5.64,537.068,2737.43,12.05,0.029,0.0480,36.5040,6.47,7.06,37.1,32.8,0.815,260,212,74,0.78,0.236,0.0430,0.0430,1.015,1034,1034,15,1,155,4.5,117.4,114.7,35.4,36.5,116,36.8,113,38.0,88.4,40.0,36.7,44.5,4.29,4.29,3.37,-2.44,0.032602,1.34572442,0.208866,4.65554262
207.00,2.333,412.953,81.759,94.583,5084.646,759.659,0.9732,76.9,-0.031,65.4,0.520,34.1,110.2,111,76.6,5.35,4.23,5.63,537.068,2304.18,12.05,0.029,0.0480,36.5040,6.47,4.46,37.1,32.8,0.815,260,212,136,1.17,1.367,0.0430,0.0430,1.015,1034,1034,15,1,116,35.6,114.6,111.8,37.8,38.9,114,37.9,112,39.1,88.4,40.0,36.7,44.5,4.29,4.29,5.05,-3.56,0.032605,1.34856487,0.208929,4.66519560
208.00,2.333,415.287,81.826,94.579,5082.358,759.310,0.9732,76.8,0.214,65.3,0.520,34.1,90.2,110,76.6,5.35,4.16,5.63,537.068,2242.90,12.05,0.029,0.0480,36.5040,6.47,4.92,37.1,32.8,0.816,261,213,99,0.93,0.700,0.0430,0.0430,1.014,1033,1033,15,1,115,36.5,113.1,110.3,38.9,40.0,113,39.1,110,40.1,88.4,39.9,36.7,44.5,4.29,4.29,4.07,-2.58,0.032607,1.35140783,0.208989,4.67485061
209.00,2.333,417.620,81.960,94.562,5080.073,758.961,0.9733,76.8,-0.051,65.3,0.519,34.1,82.8,110,76.6,5.35,4.14,5.63,537.068,2250.76,12.05,0.029,0.0480,36.4968,6.47,5.24,37.1,32.8,0.813,257,209,84,0.87,0.398,0.0430,0.0430,1.014,1033,1033,15,1,116,35.5,111.7,109.0,39.9,40.8,111,40.1,109,41.1,88.5,39.9,36.7,44.5,4.29,4.29,3.35,-2.08,0.032609,1.35424933,0.209070,4.68450390
210.00,2.333,419.953,82.028,94.558,5077.785,758.612,0.9732,76.9,-0.022,65.2,0.519,34.1,107.2,110,76.6,5.35,4.24,5.63,537.116,2667.20,12.05,0.029,0.0480,36.4968,6.47,7.56,37.1,32.8,0.816,262,213,131,1.12,1.279,0.0430,0.0430,1.013,1033,1033,15,1,160,0.3,117.2,114.5,35.4,36.5,115,37.3,112,38.5,88.4,39.9,36.7,44.5,4.30,4.30,5.21,-4.59,0.032610,1.35709022,0.209128,4.69415829
211.00,2.333,422.287,82.095,94.559,5075.498,758.263,0.9731,76.8,0.150,65.2,0.519,34.1,87.5,110,76.6,5.35,4.14,5.62,537.116,2732.72,12.05,0.029,0.0480,36.4968,6.47,7.01,37.1,32.8,0.815,262,213,94,0.90,0.606,0.0430,0.0430,1.013,1034,1034,15,1,154,5.1,117.3,114.6,35.5,36.6,116,36.9,113,38.1,88.4,40.0,36.6,44.5,4.30,4.30,3.96,-2.88,0.032613,1.35993319,0.209192,4.70381396
212.00,2.333,424.620,82.231,94.556,5073.213,757.914,0.9731,76.8,-0.073,65.1,0.519,34.1,93.7,110,76.7,5.36,4.15,5.62,537.116,2294.71,12.05,0.029,0.0480,36.4968,6.47,4.47,37.1,32.8,0.813,256,208,104,1.00,0.747,0.0430,0.0430,1.012,1034,1034,15,1,116,35.8,114.6,111.8,37.8,38.9,114,37.9,112,39.1,88.4,40.0,36.6,44.6,4.30,4.30,3.70,-2.60,0.032617,1.36277423,0.209274,4.71346796
213.00,2.333,426.953,82.299,94.904,5070.924,757.565,0.9732,76.9,0.018,64.7,0.516,34.1,102.0,111,76.7,5.32,4.24,5.61,537.116,2242.90,12.05,0.029,0.0480,36.4968,6.47,4.92,37.1,32.8,0.816,262,214,121,1.06,1.107,0.0430,0.0430,1.023,1033,1033,15,1,115,36.6,113.0,110.3,38.9,40.0,113,39.1,110,40.2,88.4,39.9,36.6,44.6,4.30,4.30,4.79,-3.07,0.032619,1.36561656,0.209326,4.72312450
214.00,2.333,429.287,82.358,95.277,5068.637,757.216,0.9732,76.8,-0.035,64.2,0.513,34.1,82.3,111,77.5,5.29,4.09,5.60,537.116,2255.41,12.05,0.029,0.0480,36.5025,6.47,5.33,37.1,32.8,0.815,262,213,84,0.85,0.429,0.0430,0.0430,1.033,1033,1033,15,1,118,34.3,111.7,109.0,39.9,40.9,111,40.1,109,41.1,88.4,39.9,36.6,44.6,4.30,4.30,3.62,-2.22,0.032621,1.36846210,0.209393,4.73278283
215.00,2.333,431.620,82.423,95.219,5066.351,756.867,0.9731,76.9,-0.088,64.0,0.512,34.1,110.1,111,77.6,5.28,4.19,5.58,537.165,2674.01,12.05,0.029,0.0480,36.5025,6.47,7.58,37.1,32.8,0.815,260,212,136,1.17,1.349,0.0430,0.0430,1.036,1033,1033,15,1,160,0.3,117.3,114.6,35.3,36.5,115,37.2,112,38.4,88.3,39.9,36.6,44.6,4.30,4.30,4.92,-4.42,0.032623,1.37130679,0.209462,4.74244340
216.00,2.333,433.953,82.433,95.066,5064.063,756.519,0.9730,76.8,0.174,63.9,0.512,34.1,92.4,111,77.5,5.27,4.15,5.58,537.165,2727.76,12.05,0.029,0.0480,36.5025,6.47,6.97,37.1,32.8,0.816,262,214,103,0.96,0.775,0.0431,0.0431,1.035,1034,1034,15,1,153,5.8,117.2,114.5,35.6,36.7,116,36.9,113,38.1,88.3,40.0,36.6,44.6,4.30,4.30,4.24,-3.08,0.032625,1.37415439,0.209516,4.75211049
217.00,2.333,436.287,82.432,94.756,5061.779,756.170,0.9730,76.8,-0.051,63.8,0.513,34.1,83.5,110,77.2,5.26,4.12,5.57,537.165,2286.64,12.05,0.029,0.0480,36.5025,6.47,4.54,37.1,32.8,0.813,258,210,85,0.88,0.416,0.0431,0.0431,1.033,1034,1034,15,1,116,36.0,114.5,111.7,37.8,39.0,114,37.9,112,39.1,88.3,40.0,36.6,44.6,4.30,4.30,3.43,-2.36,0.032629,1.37700051,0.209592,4.76177967
218.00,2.333,438.620,82.429,94.621,5059.492,755.821,0.9731,76.9,-0.023,63.7,0.513,34.1,104.4,110,77.1,5.25,4.23,5.56,537.165,2242.90,12.05,0.029,0.0480,36.5025,6.47,4.92,37.1,32.8,0.816,262,214,126,1.09,1.185,0.0431,0.0431,1.033,1033,1033,15,1,115,36.6,113.0,110.2,39.0,40.0,113,39.1,110,40.2,88.3,39.9,36.6,44.6,4.31,4.31,4.97,-3.22,0.032631,1.37984546,0.209646,4.77145333
219.00,2.333,440.953,82.429,94.533,5057.206,755.472,0.9731,76.8,0.015,63.7,0.513,34.1,84.0,110,77.0,5.25,4.10,5.56,537.165,2260.82,12.05,0.029,0.0481,36.5242,6.47,5.42,37.1,32.8,0.815,262,214,87,0.87,0.482,0.0431,0.0431,1.032,1033,1033,15,1,120,32.6,111.6,108.9,39.9,40.9,111,40.2,109,41.2,88.3,39.9,36.6,44.6,4.31,4.31,3.76,-2.32,0.032633,1.38269143,0.209711,4.78112995
220.00,2.333,443.287,82.446,94.436,5054.921,755.123,0.9730,76.8,0.407,63.6,0.512,34.1,106.8,110,76.9,5.24,4.16,5.55,537.203,2680.64,12.05,0.029,0.0481,36.5242,6.47,7.60,37.1,32.8,0.814,259,211,129,1.14,1.212,0.0431,0.0431,1.033,1033,1033,15,1,160,0.3,117.4,114.6,35.3,36.4,115,37.1,112,38.4,88.3,39.9,36.5,44.6,4.31,4.31,4.63,-4.19,0.032634,1.38553420,0.209785,4.79080634
221.00,2.333,445.620,82.465,94.416,5052.634,754.774,0.9730,76.8,0.114,63.5,0.512,34.1,94.8,110,76.9,5.24,4.17,5.54,537.203,2722.56,12.05,0.029,0.0481,36.5242,6.47,6.93,37.1,32.8,0.816,263,214,108,0.99,0.855,0.0431,0.0431,1.034,1034,1034,15,1,152,6.5,117.1,114.4,35.6,36.8,116,36.9,113,38.2,88.2,40.0,36.5,44.6,4.31,4.31,4.42,-3.21,0.032637,1.38837832,0.209837,4.80048578
222.00,2.333,447.953,82.522,94.409,5050.350,754.425,0.9729,76.8,0.058,63.4,0.512,34.1,76.9,110,76.9,5.23,4.10,5.54,537.203,2279.79,12.05,0.029,0.0481,36.5242,6.47,4.59,37.1,32.8,0.814,262,213,74,0.79,0.240,0.0431,0.0431,1.035,1034,1034,15,1,116,36.1,114.4,111.6,37.9,39.0,114,38.0,111,39.2,88.2,40.0,36.5,44.6,4.31,4.31,3.40,-2.29,0.032641,1.39122147,0.209912,4.81016329
223.00,2.333,450.287,82.559,94.394,5048.063,754.076,0.9730,76.9,-0.034,63.3,0.512,34.1,107.7,110,76.9,5.23,4.20,5.54,537.203,2242.90,12.05,0.029,0.0481,36.5242,6.47,4.92,37.1,32.8,0.816,263,214,132,1.13,1.287,0.0431,0.0431,1.036,1033,1033,15,1,115,36.6,112.9,110.2,39.0,40.0,113,39.1,110,40.2,88.2,39.9,36.5,44.6,4.31,4.31,5.05,-3.32,0.032643,1.39406295,0.209973,4.81984041
224.00,2.333,452.620,82.603,94.414,5045.777,753.727,0.9730,76.8,0.150,63.3,0.512,34.1,86.6,110,76.9,5.23,4.10,5.53,537.203,2273.49,12.05,0.029,0.0481,36.5416,6.47,5.57,37.1,32.8,0.815,263,214,93,0.89,0.569,0.0431,0.0431,1.035,1033,1033,15,1,126,27.9,111.6,108.9,39.9,40.9,111,40.2,109,41.2,88.2,39.9,36.5,44.6,4.31,4.31,3.90,-2.44,0.032644,1.39690652,0.210036,4.82951786
225.00,2.333,454.953,82.702,94.453,5043.493,753.379,0.9730,76.8,-0.074,63.3,0.511,34.1,101.5,110,77.0,5.23,4.13,5.53,537.239,2693.33,12.10,0.029,0.0481,36.5416,6.50,7.64,37.1,32.8,0.813,258,210,119,1.08,1.017,0.0431,0.0431,1.036,1033,1033,15,1,160,0.3,117.5,114.8,35.1,36.3,115,37.0,112,38.2,88.2,40.0,36.5,44.6,4.31,4.31,4.24,-3.87,0.032646,1.39974772,0.210115,4.83919223
226.00,2.333,457.287,82.757,94.469,5041.205,753.030,0.9729,76.8,0.047,63.2,0.511,34.1,97.9,110,77.0,5.23,4.18,5.53,537.239,2711.46,12.10,0.029,0.0481,36.5416,6.50,6.84,37.1,32.8,0.816,263,215,114,1.02,0.961,0.0431,0.0431,1.036,1034,1034,15,1,150,8.1,117.0,114.2,35.8,36.9,116,37.0,113,38.2,88.1,40.0,36.5,44.6,4.31,4.31,4.62,-3.35,0.032649,1.40259016,0.210169,4.84886783
227.00,2.333,459.620,82.873,94.488,5038.920,752.681,0.9729,76.8,0.007,63.1,0.511,34.1,79.3,110,77.1,5.23,4.07,5.52,537.239,2269.09,12.10,0.029,0.0481,36.5416,6.50,4.68,37.1,32.8,0.814,263,214,79,0.81,0.320,0.0431,0.0431,1.036,1034,1034,15,1,116,36.2,114.3,111.5,37.9,39.1,114,38.0,111,39.2,88.1,40.0,36.5,44.6,4.32,4.32,3.52,-2.36,0.032653,1.40543292,0.210243,4.85854122
228.00,2.333,461.953,82.933,94.473,5036.634,752.332,0.9730,76.8,-0.034,63.1,0.511,34.1,110.0,110,77.1,5.23,4.17,5.52,537.239,2242.90,12.10,0.029,0.0481,36.5416,6.50,4.92,37.1,32.8,0.815,262,213,136,1.16,1.346,0.0432,0.0432,1.036,1033,1033,15,1,115,36.6,112.9,110.1,39.0,40.1,113,39.2,110,40.3,88.2,39.9,36.4,44.6,4.32,4.32,4.97,-3.29,0.032655,1.40827376,0.210311,4.86821333
229.00,2.333,464.287,82.995,94.484,5034.347,751.983,0.9730,76.8,0.214,63.1,0.511,34.1,89.3,110,77.1,5.23,4.10,5.52,537.239,2288.02,12.10,0.029,0.0481,36.5416,6.50,5.70,37.1,32.8,0.815,263,215,98,0.92,0.663,0.0432,0.0432,1.036,1033,1033,15,1,132,22.6,111.7,109.0,39.8,40.8,111,40.2,108,41.2,88.2,39.9,36.4,44.6,4.32,4.32,4.05,-2.58,0.032656,1.41111717,0.210372,4.87788673
230.00,2.333,466.620,83.121,94.500,5032.063,751.634,0.9729,76.8,-0.073,63.0,0.510,34.1,93.3,110,77.1,5.24,4.10,5.51,537.271,2705.29,12.10,0.029,0.0481,36.5416,6.50,7.67,37.1,32.8,0.813,258,210,104,0.99,0.728,0.0432,0.0432,1.035,1033,1033,15,1,160,0.3,117.6,114.9,35.0,36.2,115,36.9,112,38.1,88.1,40.0,36.4,44.6,4.32,4.32,3.83,-3.51,0.032659,1.41395879,0.210454,4.88755755
231.00,2.333,468.953,83.185,94.502,5029.776,751.285,0.9728,76.8,0.018,63.0,0.510,34.1,101.1,110,77.1,5.24,4.19,5.51,537.271,2699.47,12.10,0.029,0.0481,36.5416,6.50,6.74,37.1,32.8,0.815,264,215,120,1.05,1.067,0.0432,0.0432,1.035,1034,1034,15,1,148,9.8,116.8,114.1,35.9,37.0,115,37.0,113,38.2,88.1,40.0,36.4,44.6,4.32,4.32,4.83,-3.51,0.032661,1.41680087,0.210509,4.89722980
232.00,2.333,471.287,83.249,94.501,5027.491,750.937,0.9728,76.8,-0.035,62.9,0.510,34.1,81.7,110,77.1,5.24,4.05,5.51,537.271,2261.45,12.10,0.029,0.0481,36.5416,6.50,4.75,37.1,32.8,0.814,263,214,84,0.83,0.401,0.0432,0.0432,1.035,1033,1033,15,1,115,36.3,114.2,111.4,38.0,39.1,114,38.1,111,39.3,88.1,40.0,36.4,44.6,4.32,4.32,3.65,-2.43,0.032665,1.41964414,0.210581,4.90690153
233.00,2.333,473.620,83.378,94.479,5025.206,750.588,0.9729,76.8,-0.085,62.8,0.510,34.1,109.3,110,77.2,5.24,4.14,5.51,537.271,2242.89,12.10,0.029,0.0481,36.5416,6.50,4.92,37.1,32.8,0.814,261,213,135,1.15,1.307,0.0432,0.0432,1.035,1033,1033,15,1,115,36.6,112.8,110.1,39.0,40.1,113,39.2,110,40.3,88.1,39.9,36.4,44.6,4.32,4.32,4.77,-3.16,0.032667,1.42248513,0.210655,4.91657208
234.00,2.333,475.953,83.443,94.477,5022.919,750.239,0.9729,76.8,0.198,62.8,0.510,34.1,92.1,110,77.1,5.24,4.11,5.50,537.271,2303.87,12.10,0.029,0.0481,36.5387,6.50,5.83,37.1,32.8,0.815,264,215,103,0.95,0.756,0.0432,0.0432,1.034,1033,1033,15,1,138,17.5,111.8,109.1,39.7,40.7,111,40.2,108,41.2,88.1,39.9,36.4,44.6,4.32,4.32,4.22,-2.74,0.032668,1.42532857,0.210714,4.92624506
235.00,2.333,478.287,83.574,94.478,5020.635,749.890,0.9729,76.8,-0.049,62.8,0.510,34.1,83.3,110,77.2,5.25,4.07,5.50,537.300,2716.48,12.10,0.029,0.0481,36.5387,6.50,7.70,37.1,32.8,0.813,259,211,85,0.87,0.406,0.0432,0.0432,1.033,1033,1033,15,1,160,0.3,117.8,115.0,34.9,36.1,116,36.8,113,38.0,88.1,40.0,36.3,44.6,4.32,4.32,3.53,-3.21,0.032670,1.42817081,0.210795,4.93591616
236.00,2.333,480.620,83.640,94.476,5018.348,749.541,0.9728,76.8,-0.007,62.7,0.510,34.1,104.3,110,77.2,5.25,4.18,5.50,537.300,2686.61,12.10,0.029,0.0481,36.5387,6.50,6.65,37.1,32.8,0.815,264,215,126,1.08,1.172,0.0432,0.0432,1.033,1034,1034,15,1,146,11.6,116.7,113.9,36.0,37.1,115,37.0,112,38.3,88.0,40.0,36.3,44.6,4.33,4.33,5.03,-3.68,0.032673,1.43101253,0.210854,4.94558848
237.00,2.333,482.953,83.705,94.473,5016.062,749.192,0.9728,76.8,-0.019,62.7,0.510,34.1,84.2,110,77.2,5.25,4.05,5.50,537.300,2256.02,12.10,0.029,0.0481,36.5387,6.50,4.80,37.1,32.8,0.814,264,215,89,0.86,0.483,0.0432,0.0432,1.033,1033,1033,15,1,115,36.4,114.1,111.3,38.0,39.2,114,38.1,111,39.3,88.0,40.0,36.3,44.6,4.33,4.33,3.78,-2.51,0.032676,1.43385610,0.210923,4.95526158
238.00,2.333,485.287,83.837,94.452,5013.778,748.844,0.9729,76.8,0.668,62.6,0.509,34.1,106.6,110,77.2,5.25,4.11,5.49,537.300,2242.89,12.10,0.029,0.0481,36.5387,6.50,4.92,37.1,32.8,0.813,261,212,130,1.12,1.199,0.0432,0.0432,1.032,1033,1033,15,1,115,36.6,112.8,110.0,39.1,40.1,113,39.2,110,40.3,88.1,39.9,36.3,44.6,4.33,4.33,4.46,-2.96,0.032679,1.43669731,0.211002,4.96493327
239.00,2.333,487.620,83.903,94.448,5011.491,748.495,0.9729,76.8,0.129,62.6,0.509,34.1,94.9,110,77.2,5.25,4.12,5.49,537.300,2320.67,12.10,0.029,0.0481,36.5339,6.50,5.95,37.1,32.8,0.815,265,216,109,0.98,0.852,0.0432,0.0432,1.032,1033,1033,15,1,144,13.2,111.9,109.3,39.6,40.6,111,40.1,109,41.2,88.1,39.9,36.3,44.6,4.33,4.33,4.41,-2.93,0.032679,1.43954051,0.211058,4.97460773
240.00,2.333,489.953,84.037,94.448,5009.207,748.146,0.9728,76.8,0.060,62.6,0.509,34.1,77.2,110,77.2,5.26,4.05,5.49,537.330,2726.87,12.10,0.029,0.0481,36.5339,6.50,7.72,37.1,32.8,0.814,264,215,76,0.78,0.245,0.0433,0.0433,1.031,1033,1033,15,1,160,0.3,117.9,115.1,34.8,36.0,116,36.7,113,38.0,88.0,39.9,36.3,44.6,4.33,4.33,3.49,-3.10,0.032682,1.44238321,0.211137,4.98428073
241.00,2.333,492.287,84.104,94.447,5006.921,747.797,0.9727,76.8,-0.026,62.5,0.509,34.1,107.6,110,77.2,5.26,4.15,5.48,537.330,2672.91,12.10,0.029,0.0481,36.5339,6.50,6.55,37.1,32.8,0.815,265,216,133,1.12,1.277,0.0433,0.0433,1.031,1034,1034,15,1,143,13.5,116.5,113.8,36.1,37.3,115,37.1,112,38.3,88.0,40.0,36.3,44.6,4.33,4.33,5.14,-3.79,0.032685,1.44522454,0.211202,4.99395427
242.00,2.333,494.620,84.171,94.445,5004.635,747.448,0.9727,76.8,0.091,62.5,0.509,34.1,86.7,110,77.2,5.26,4.05,5.48,537.330,2252.17,12.10,0.029,0.0481,36.5339,6.50,4.83,37.1,32.8,0.814,265,215,94,0.89,0.568,0.0433,0.0433,1.031,1033,1033,15,1,115,36.5,114.0,111.2,38.1,39.2,114,38.2,111,39.3,88.0,40.0,36.3,44.6,4.33,4.33,3.92,-2.60,0.032688,1.44806822,0.211268,5.00362945
243.00,2.333,496.953,84.305,94.428,5002.352,747.100,0.9728,76.8,-0.076,62.4,0.509,34.1,101.3,110,77.2,5.26,4.08,5.48,537.330,2242.89,12.10,0.029,0.0481,36.5339,6.50,4.92,37.1,32.8,0.813,260,211,120,1.07,1.004,0.0433,0.0433,1.030,1033,1033,15,1,115,36.6,112.7,109.9,39.1,40.2,112,39.3,110,40.4,88.0,39.9,36.2,44.6,4.33,4.33,4.09,-2.68,0.032690,1.45090971,0.211349,5.01330294
244.00,2.333,499.287,84.373,94.423,5000.065,746.751,0.9728,76.8,0.071,62.4,0.509,34.1,97.9,110,77.2,5.26,4.13,5.48,537.330,2338.15,12.10,0.029,0.0481,36.5292,6.50,6.06,37.1,32.8,0.815,265,216,115,1.01,0.952,0.0433,0.0433,1.030,1033,1033,15,1,148,9.7,112.1,109.5,39.4,40.4,111,40.1,109,41.1,88.0,39.9,36.2,44.6,4.34,4.34,4.62,-3.15,0.032691,1.45375251,0.211406,5.02297900
245.00,2.333,501.620,84.508,94.422,4997.780,746.402,0.9728,76.8,0.007,62.3,0.508,34.1,79.5,110,77.2,5.27,4.02,5.47,537.361,2736.42,12.10,0.029,0.0481,36.5292,6.50,7.74,37.1,32.8,0.814,264,215,80,0.80,0.319,0.0433,0.0433,1.029,1033,1033,15,1,160,0.3,118.0,115.2,34.8,36.0,116,36.6,113,37.9,88.0,40.0,36.2,44.6,4.34,4.34,3.61,-3.15,0.032693,1.45659560,0.211482,5.03265412
246.00,2.333,503.953,84.575,94.877,4995.495,746.053,0.9727,76.8,-0.037,62.2,0.507,34.1,109.4,110,77.2,5.26,4.13,5.46,537.361,2658.42,12.10,0.029,0.0481,36.5292,6.50,6.45,37.1,32.8,0.815,264,215,136,1.14,1.332,0.0433,0.0433,1.036,1034,1034,15,1,141,15.4,116.3,113.6,36.2,37.4,115,37.1,112,38.4,87.9,40.0,36.2,44.6,4.34,4.34,5.14,-3.80,0.032696,1.45943750,0.211548,5.04232971
247.00,2.333,506.287,84.632,95.323,4993.208,745.704,0.9727,76.8,0.091,61.7,0.504,34.1,86.8,110,78.2,5.22,4.02,5.45,537.361,2249.44,12.10,0.029,0.0481,36.5292,6.50,4.86,37.1,32.8,0.814,265,216,93,0.89,0.573,0.0433,0.0433,1.049,1033,1033,15,1,115,36.5,114.0,111.1,38.1,39.3,114,38.2,111,39.4,87.9,40.0,36.2,44.6,4.34,4.34,3.91,-2.58,0.032699,1.46228441,0.211610,5.05200955
248.00,2.333,508.620,84.681,95.240,4990.924,745.356,0.9728,76.8,0.668,61.3,0.503,34.1,107.2,110,78.4,5.19,4.08,5.44,537.361,2242.89,12.10,0.029,0.0481,36.5292,6.50,4.92,37.1,32.8,0.813,262,213,131,1.13,1.224,0.0433,0.0433,1.053,1033,1033,15,1,115,36.6,112.6,109.8,39.2,40.2,112,39.3,110,40.4,87.9,39.9,36.2,44.6,4.34,4.34,4.52,-2.98,0.032701,1.46513097,0.211684,5.06169164
249.00,2.333,510.953,84.679,95.060,4988.638,745.007,0.9728,76.8,0.164,61.3,0.503,34.1,93.0,110,78.2,5.19,4.07,5.43,537.393,2356.12,12.10,0.029,0.0481,36.5357,6.50,6.16,37.1,32.8,0.815,265,216,105,0.96,0.785,0.0433,0.0433,1.052,1033,1033,15,1,151,7.1,112.3,109.7,39.2,40.2,111,40.1,109,41.1,87.9,39.9,36.2,44.6,4.34,4.34,4.33,-3.05,0.032702,1.46798024,0.211737,5.07138127
250.00,2.333,513.287,84.648,94.714,4986.356,744.658,0.9727,76.8,-0.067,61.2,0.504,34.1,88.9,110,77.9,5.18,4.04,5.42,537.393,2745.10,12.10,0.029,0.0481,36.5357,6.50,7.75,37.1,32.8,0.812,260,211,95,0.94,0.576,0.0433,0.0433,1.050,1033,1033,15,1,160,0.3,118.0,115.3,34.7,35.9,116,36.6,113,37.8,87.9,40.0,36.1,44.6,4.34,4.34,3.71,-3.25,0.032704,1.47082811,0.211814,5.08107402
251.00,2.333,515.620,84.629,94.579,4984.070,744.309,0.9726,76.8,0.021,61.2,0.504,34.1,100.1,110,77.8,5.18,4.13,5.41,537.393,2643.17,12.10,0.029,0.0481,36.5357,6.50,6.34,37.1,32.8,0.815,266,216,119,1.04,1.025,0.0434,0.0434,1.049,1034,1034,15,1,139,17.3,116.1,113.4,36.4,37.5,115,37.2,112,38.4,87.8,40.0,36.1,44.6,4.34,4.34,4.81,-3.44,0.032707,1.47367520,0.211867,5.09077271
252.00,2.333,517.953,84.601,94.393,4981.787,743.960,0.9726,76.8,0.007,61.0,0.504,34.1,79.8,109,77.6,5.16,4.00,5.40,537.393,2247.51,12.10,0.029,0.0481,36.5357,6.50,4.88,37.1,32.8,0.814,265,216,80,0.81,0.326,0.0434,0.0434,1.050,1033,1033,15,1,115,36.6,113.9,111.1,38.2,39.3,114,38.3,111,39.5,87.8,40.0,36.1,44.6,4.34,4.34,3.57,-2.33,0.032710,1.47652235,0.211938,5.10047414
253.00,2.333,520.287,84.595,94.329,4979.502,743.612,0.9727,76.8,-0.037,61.0,0.503,34.1,108.2,109,77.5,5.16,4.11,5.40,537.393,2242.89,12.10,0.029,0.0481,36.5357,6.50,4.92,37.1,32.8,0.814,265,216,134,1.13,1.282,0.0434,0.0434,1.050,1033,1033,15,1,115,36.6,112.5,109.7,39.3,40.3,112,39.4,109,40.5,87.8,39.9,36.1,44.6,4.35,4.35,5.06,-3.29,0.032712,1.47936665,0.212001,5.11017711
254.00,2.333,522.620,84.597,94.295,4977.218,743.263,0.9727,76.8,0.091,60.9,0.503,34.1,85.8,109,77.5,5.15,4.01,5.39,537.424,2374.42,12.10,0.029,0.0481,36.5633,6.50,6.27,37.1,32.8,0.814,266,216,92,0.88,0.530,0.0434,0.0434,1.051,1033,1033,15,1,154,5.1,112.6,109.9,39.0,40.0,111,40.0,109,41.0,87.8,39.9,36.1,44.6,4.35,4.35,3.96,-2.90,0.032713,1.48221258,0.212064,5.11988255
255.00,2.333,524.953,84.623,94.279,4974.935,742.914,0.9725,76.8,0.668,60.8,0.503,34.1,106.3,109,77.5,5.15,4.07,5.39,537.424,2752.88,12.10,0.029,0.0481,36.5633,6.50,7.75,37.1,32.8,0.813,262,213,130,1.12,1.183,0.0434,0.0434,1.052,1033,1033,15,1,160,0.3,118.1,115.3,34.7,35.9,116,36.5,113,37.8,87.7,40.0,36.1,44.6,4.35,4.35,4.69,-4.01,0.032715,1.48505548,0.212139,5.12958609
256.00,2.333,527.287,84.647,94.284,4972.650,742.565,0.9725,76.8,0.164,60.8,0.503,34.1,92.5,109,77.5,5.14,4.05,5.38,537.424,2627.19,12.10,0.029,0.0481,36.5633,6.50,6.24,37.1,32.8,0.815,266,217,105,0.95,0.761,0.0434,0.0434,1.052,1034,1034,15,1,137,19.2,115.9,113.2,36.6,37.7,115,37.3,112,38.5,87.7,40.1,36.1,44.6,4.35,4.35,4.32,-3.06,0.032718,1.48789991,0.212194,5.13929145
257.00,2.333,529.620,84.713,94.305,4970.368,742.217,0.9725,76.8,-0.067,60.7,0.503,34.1,88.6,109,77.6,5.14,4.02,5.38,537.424,2246.15,12.10,0.029,0.0481,36.5633,6.50,4.89,37.1,32.8,0.812,260,212,95,0.93,0.562,0.0434,0.0434,1.053,1033,1033,15,1,115,36.6,113.8,111.0,38.2,39.4,114,38.3,111,39.5,87.7,40.0,36.1,44.6,4.35,4.35,3.62,-2.43,0.032722,1.49074297,0.212274,5.14899382
258.00,2.333,531.953,84.753,94.305,4968.082,741.868,0.9726,76.8,0.021,60.6,0.502,34.1,100.0,109,77.6,5.14,4.11,5.38,537.424,2242.89,12.10,0.029,0.0481,36.5633,6.50,4.92,37.1,32.8,0.815,266,217,119,1.03,1.016,0.0434,0.0434,1.054,1033,1033,15,1,115,36.6,112.3,109.6,39.3,40.4,112,39.5,109,40.6,87.7,40.0,36.1,44.6,4.35,4.35,4.77,-2.98,0.032724,1.49358588,0.212330,5.15869651
259.00,2.333,534.287,84.846,94.333,4965.799,741.519,0.9726,76.7,0.007,60.6,0.502,34.1,79.9,109,77.6,5.14,3.98,5.37,537.447,2392.94,12.10,0.029,0.0481,36.5872,6.50,6.37,37.1,32.8,0.813,266,216,81,0.81,0.327,0.0434,0.0434,1.054,1033,1033,15,1,155,3.7,112.8,110.1,38.8,39.8,111,39.9,109,40.9,87.7,40.0,36.0,44.6,4.35,4.35,3.63,-2.77,0.032726,1.49642969,0.212403,5.16839742
260.00,2.333,536.620,84.898,94.349,4963.514,741.170,0.9724,76.8,-0.037,60.5,0.502,34.1,108.2,109,77.6,5.14,4.09,5.37,537.447,2759.73,12.10,0.029,0.0481,36.5872,6.50,7.75,37.1,32.8,0.814,266,216,134,1.12,1.280,0.0434,0.0434,1.054,1033,1033,15,1,160,0.3,118.1,115.3,34.6,35.9,116,36.5,113,37.8,87.6,40.1,36.0,44.6,4.35,4.35,5.22,-4.34,0.032728,1.49927147,0.212470,5.17809665
261.00,2.333,538.953,84.951,94.360,4961.230,740.822,0.9724,76.7,0.091,60.5,0.502,34.1,86.0,109,77.7,5.14,3.99,5.37,537.447,2610.55,12.10,0.029,0.0481,36.5872,6.50,6.13,37.1,32.8,0.814,266,217,92,0.87,0.534,0.0434,0.0434,1.055,1034,1034,15,1,134,21.0,115.8,113.0,36.7,37.8,115,37.3,112,38.6,87.6,40.1,36.0,44.6,4.35,4.35,3.93,-2.76,0.032731,1.50211565,0.212536,5.18779639
262.00,2.333,541.287,85.064,94.373,4958.947,740.473,0.9724,76.8,0.668,60.4,0.502,34.1,106.3,109,77.7,5.14,4.05,5.37,537.447,2245.19,12.10,0.029,0.0481,36.5872,6.50,4.90,37.1,32.8,0.813,263,214,130,1.11,1.181,0.0435,0.0435,1.055,1033,1033,15,1,115,36.6,113.7,110.9,38.3,39.4,114,38.4,111,39.6,87.6,40.0,36.0,44.6,4.36,4.36,4.57,-3.16,0.032735,1.50495754,0.212614,5.19749336
263.00,2.333,543.620,85.122,94.360,4956.662,740.124,0.9725,76.7,0.164,60.4,0.501,34.1,92.6,109,77.7,5.14,4.03,5.36,537.447,2242.89,12.10,0.029,0.0481,36.5872,6.50,4.92,37.1,32.8,0.814,267,217,105,0.95,0.762,0.0435,0.0435,1.055,1033,1033,15,1,115,36.7,112.2,109.5,39.4,40.5,112,39.6,109,40.7,87.6,40.0,36.0,44.6,4.36,4.36,4.28,-2.64,0.032737,1.50780148,0.212672,5.20719203
264.00,2.333,545.953,85.242,94.367,4954.379,739.775,0.9725,76.7,-0.067,60.3,0.501,34.1,88.6,109,77.7,5.14,4.00,5.36,537.457,2411.59,12.10,0.029,0.0482,36.6049,6.50,6.46,37.1,32.8,0.812,261,212,96,0.93,0.561,0.0435,0.0435,1.054,1033,1033,15,1,157,2.7,113.1,110.4,38.5,39.6,112,39.8,109,40.8,87.6,40.0,36.0,44.6,4.36,4.36,3.67,-2.93,0.032739,1.51064437,0.212754,5.21688821
265.00,2.333,548.287,85.303,94.372,4952.094,739.427,0.9724,76.8,0.021,60.3,0.501,34.1,100.0,109,77.7,5.14,4.09,5.36,537.457,2765.63,12.10,0.029,0.0482,36.6049,6.50,7.75,37.1,32.8,0.814,267,218,119,1.03,1.015,0.0435,0.0435,1.054,1033,1033,15,1,160,0.3,118.1,115.3,34.6,35.9,116,36.5,113,37.8,87.6,40.1,36.0,44.6,4.36,4.36,4.87,-3.93,0.032741,1.51348731,0.212812,5.22658557
266.00,2.333,550.620,85.427,94.371,4949.811,739.078,0.9723,76.7,0.007,60.2,0.501,34.1,80.0,109,77.7,5.15,3.96,5.35,537.457,2593.28,12.10,0.029,0.0482,36.6049,6.50,6.02,37.1,32.8,0.813,267,217,81,0.81,0.329,0.0435,0.0435,1.053,1034,1034,15,1,132,22.7,115.6,112.9,36.8,37.9,115,37.4,112,38.6,87.5,40.1,36.0,44.7,4.36,4.36,3.59,-2.50,0.032745,1.51633130,0.212887,5.23628225
267.00,2.333,552.953,85.490,94.367,4947.527,738.729,0.9723,76.8,-0.037,60.2,0.501,34.1,108.1,109,77.8,5.15,4.07,5.35,537.457,2244.52,12.10,0.029,0.0482,36.6049,6.50,4.90,37.1,32.8,0.814,266,217,134,1.12,1.275,0.0435,0.0435,1.053,1033,1033,15,1,115,36.6,113.6,110.8,38.4,39.5,113,38.5,111,39.6,87.5,40.1,35.9,44.7,4.36,4.36,5.11,-3.48,0.032748,1.51917341,0.212956,5.24597840
268.00,2.333,555.287,85.553,94.344,4945.242,738.381,0.9724,76.7,0.091,60.1,0.501,34.1,86.0,109,77.8,5.15,3.97,5.35,537.457,2242.89,12.10,0.029,0.0482,36.6049,6.50,4.92,37.1,32.8,0.814,267,217,93,0.87,0.533,0.0435,0.0435,1.053,1033,1033,15,1,115,36.7,112.1,109.4,39.4,40.5,112,39.6,109,40.7,87.6,40.0,35.9,44.7,4.36,4.36,3.90,-2.38,0.032751,1.52201798,0.213023,5.25567612
269.00,2.333,557.620,85.680,94.346,4942.960,738.032,0.9724,76.8,0.668,60.1,0.501,34.1,106.2,109,77.8,5.15,4.03,5.35,537.461,2430.30,12.10,0.029,0.0482,36.6163,6.50,6.56,37.1,32.8,0.813,264,214,130,1.11,1.176,0.0435,0.0435,1.052,1033,1033,15,1,157,2.0,113.4,110.7,38.3,39.3,112,39.7,109,40.7,87.6,40.0,35.9,44.7,4.36,4.36,4.61,-3.71,0.032752,1.52486022,0.213102,5.26537203
270.00,2.333,559.953,85.745,94.348,4940.674,737.683,0.9723,76.7,0.192,60.1,0.501,34.1,92.6,109,77.8,5.15,4.01,5.34,537.461,2770.57,12.10,0.029,0.0482,36.6163,6.50,7.73,37.1,32.8,0.814,268,218,105,0.94,0.760,0.0435,0.0435,1.052,1033,1033,15,1,160,0.3,118.1,115.3,34.6,35.8,116,36.5,113,37.8,87.5,40.1,35.9,44.7,4.36,4.36,4.36,-3.50,0.032754,1.52770445,0.213161,5.27507048
271.00,2.333,562.287,85.874,94.344,4938.392,737.334,0.9722,76.7,-0.067,60.0,0.500,34.1,88.6,109,77.8,5.15,3.98,5.34,537.461,2575.43,12.10,0.029,0.0482,36.6163,6.50,5.91,37.1,32.8,0.811,262,212,96,0.92,0.557,0.0435,0.0435,1.052,1034,1034,15,1,130,24.3,115.5,112.7,36.9,38.0,115,37.4,112,38.6,87.5,40.1,35.9,44.7,4.37,4.37,3.64,-2.61,0.032759,1.53054761,0.213244,5.28476716
272.00,2.333,564.620,85.939,94.340,4936.107,736.986,0.9723,76.8,0.033,60.0,0.500,34.1,99.9,109,77.8,5.16,4.07,5.34,537.461,2244.04,12.10,0.029,0.0482,36.6163,6.50,4.91,37.1,32.8,0.814,268,218,119,1.02,1.009,0.0436,0.0436,1.051,1033,1033,15,1,115,36.7,113.5,110.6,38.4,39.6,113,38.5,110,39.7,87.5,40.1,35.9,44.7,4.37,4.37,4.79,-3.14,0.032761,1.53339084,0.213303,5.29446559
273.00,2.333,566.953,86.070,94.315,4933.824,736.637,0.9723,76.7,-0.001,59.9,0.500,34.1,80.0,109,77.8,5.16,3.94,5.34,537.461,2242.89,12.10,0.029,0.0482,36.6163,6.50,4.92,37.1,32.8,0.813,267,217,82,0.80,0.327,0.0436,0.0436,1.050,1033,1033,15,1,115,36.7,112.1,109.3,39.5,40.5,112,39.7,109,40.7,87.5,40.0,35.9,44.7,4.37,4.37,3.56,-2.15,0.032764,1.53623510,0.213378,5.30416374
274.00,2.333,569.287,86.136,94.319,4931.540,736.288,0.9723,76.8,-0.033,59.9,0.500,34.1,108.0,109,77.8,5.16,4.05,5.33,537.479,2449.00,12.10,0.029,0.0482,36.6235,6.50,6.65,37.1,32.8,0.814,267,217,135,1.11,1.269,0.0436,0.0436,1.050,1033,1033,15,1,158,1.5,113.6,110.9,38.0,39.1,112,39.5,109,40.6,87.5,40.0,35.8,44.7,4.37,4.37,5.18,-4.13,0.032765,1.53907741,0.213448,5.31386163
275.00,2.333,571.620,86.203,94.322,4929.257,735.940,0.9722,76.7,0.037,59.9,0.500,34.1,86.0,109,77.8,5.16,3.95,5.33,537.479,2774.55,12.10,0.029,0.0482,36.6235,6.50,7.72,37.1,32.8,0.813,268,218,93,0.87,0.531,0.0436,0.0436,1.050,1033,1033,15,1,160,0.3,118.1,115.3,34.6,35.8,116,36.5,113,37.8,87.5,40.1,35.8,44.7,4.37,4.37,3.97,-3.14,0.032767,1.54192214,0.213515,5.32356130
276.00,2.333,573.953,86.336,94.318,4926.974,735.591,0.9722,76.8,0.668,59.8,0.500,34.1,106.1,109,77.8,5.16,4.01,5.33,537.479,2557.03,12.10,0.029,0.0482,36.6235,6.50,5.80,37.1,32.8,0.812,264,215,130,1.10,1.169,0.0436,0.0436,1.049,1034,1034,15,1,128,25.7,115.3,112.6,37.0,38.1,115,37.4,112,38.7,87.4,40.1,35.8,44.7,4.37,4.37,4.62,-3.38,0.032772,1.54476451,0.213595,5.33325931
277.00,2.333,576.287,86.403,94.314,4924.689,735.242,0.9722,76.7,0.192,59.8,0.500,34.1,92.6,109,77.8,5.17,3.99,5.33,537.479,2243.70,12.10,0.029,0.0482,36.6235,6.50,4.91,37.1,32.8,0.814,268,218,106,0.94,0.756,0.0436,0.0436,1.049,1033,1033,15,1,115,36.7,113.4,110.6,38.5,39.6,113,38.6,110,39.8,87.4,40.1,35.8,44.7,4.37,4.37,4.30,-2.79,0.032774,1.54760892,0.213654,5.34295998
278.00,2.333,578.620,86.537,94.292,4922.408,734.894,0.9723,76.7,-0.067,59.7,0.499,34.1,88.5,109,77.8,5.17,3.96,5.32,537.479,2242.89,12.10,0.029,0.0482,36.6235,6.50,4.92,37.1,32.8,0.811,263,213,96,0.92,0.553,0.0436,0.0436,1.048,1033,1033,15,1,115,36.7,112.0,109.3,39.5,40.6,112,39.7,109,40.8,87.4,40.0,35.8,44.7,4.37,4.37,3.59,-2.24,0.032777,1.55045226,0.213738,5.35265892
279.00,2.333,580.953,86.604,94.293,4920.123,734.545,0.9723,76.8,0.033,59.7,0.499,34.1,99.9,109,77.8,5.17,4.05,5.32,537.507,2467.64,12.10,0.029,0.0482,36.6284,6.50,6.74,37.1,32.8,0.814,269,219,119,1.02,1.006,0.0436,0.0436,1.048,1033,1033,15,1,159,1.1,113.9,111.2,37.8,38.9,112,39.4,109,40.5,87.4,40.0,35.8,44.7,4.37,4.37,4.90,-3.91,0.032778,1.55329563,0.213797,5.36235960
280.00,2.333,583.287,86.739,94.294,4917.840,734.196,0.9722,76.7,-0.001,59.6,0.499,34.1,80.1,109,77.8,5.17,3.92,5.32,537.507,2777.53,12.10,0.029,0.0482,36.6284,6.50,7.69,37.1,32.8,0.813,268,218,82,0.80,0.326,0.0436,0.0436,1.048,1033,1033,15,1,160,0.3,118.0,115.3,34.6,35.8,116,36.5,113,37.8,87.4,40.1,35.8,44.7,4.38,4.38,3.63,-2.81,0.032781,1.55614001,0.213873,5.37206002
281.00,2.333,585.620,86.807,94.291,4915.556,733.847,0.9721,76.8,-0.033,59.6,0.499,34.1,107.9,109,77.8,5.17,4.03,5.31,537.507,2538.15,12.10,0.029,0.0482,36.6284,6.50,5.68,37.1,32.8,0.814,268,218,135,1.11,1.263,0.0437,0.0437,1.047,1034,1034,15,1,127,27.1,115.2,112.4,37.1,38.2,115,37.5,112,38.7,87.3,40.1,35.7,44.7,4.38,4.38,5.16,-3.71,0.032784,1.55898242,0.213943,5.38176019
282.00,2.333,587.953,86.874,94.287,4913.273,733.499,0.9721,76.7,0.037,59.6,0.499,34.1,86.0,109,77.8,5.18,3.93,5.31,537.507,2243.46,12.10,0.029,0.0482,36.6284,6.50,4.91,37.1,32.8,0.813,269,219,93,0.87,0.528,0.0437,0.0437,1.047,1033,1033,15,1,115,36.7,113.3,110.5,38.5,39.7,113,38.7,110,39.8,87.3,40.1,35.7,44.7,4.38,4.38,3.92,-2.52,0.032787,1.56182730,0.214011,5.39146218
283.00,2.333,590.287,87.009,94.268,4910.991,733.150,0.9722,76.8,0.668,59.5,0.499,34.1,106.7,109,77.8,5.18,3.99,5.31,537.507,2242.89,12.10,0.029,0.0482,36.6284,6.50,4.92,37.1,32.8,0.812,265,216,131,1.11,1.185,0.0437,0.0437,1.046,1033,1033,15,1,115,36.7,111.9,109.2,39.6,40.6,112,39.7,109,40.8,87.4,40.0,35.7,44.7,4.38,4.38,4.57,-2.96,0.032790,1.56466989,0.214091,5.40116254
284.00,2.333,592.620,87.077,94.562,4908.706,732.801,0.9722,76.7,0.204,58.9,0.494,34.1,91.0,109,77.8,5.13,3.95,5.30,537.547,2486.16,12.10,0.029,0.0482,36.6322,6.50,6.83,37.1,32.8,0.813,269,219,103,0.92,0.699,0.0437,0.0437,1.059,1033,1033,15,1,159,0.9,114.1,111.4,37.6,38.7,112,39.2,109,40.4,87.4,40.0,35.7,44.7,4.38,4.38,4.31,-3.57,0.032791,1.56751533,0.214150,5.41086600
285.00,2.333,594.953,87.184,94.976,4906.424,732.453,0.9721,76.7,-0.072,58.4,0.491,34.1,102.2,110,78.8,5.09,3.97,5.28,537.547,2779.52,12.10,0.029,0.0482,36.6322,6.50,7.67,37.1,32.8,0.812,264,215,122,1.07,1.023,0.0437,0.0437,1.072,1033,1033,15,1,160,0.3,118.0,115.2,34.6,35.8,116,36.5,113,37.8,87.3,40.1,35.7,44.7,4.38,4.38,4.33,-3.41,0.032794,1.57036105,0.214230,5.42056957
286.00,2.333,597.287,87.215,94.908,4904.139,732.104,0.9720,76.7,0.161,58.3,0.491,34.1,93.6,110,78.8,5.09,3.97,5.28,537.547,2518.82,12.10,0.029,0.0482,36.6322,6.50,5.57,37.1,32.8,0.814,269,219,107,0.95,0.788,0.0437,0.0437,1.073,1034,1034,15,1,125,28.4,115.0,112.2,37.2,38.4,115,37.6,112,38.8,87.3,40.2,35.7,44.7,4.38,4.38,4.38,-3.04,0.032797,1.57320948,0.214285,5.43027862
287.00,2.333,599.620,87.243,94.652,4901.858,731.755,0.9720,76.7,-0.076,58.2,0.491,34.1,94.1,109,78.6,5.08,3.95,5.27,537.547,2243.29,12.10,0.029,0.0482,36.6322,6.50,4.92,37.1,32.8,0.811,264,214,106,0.98,0.736,0.0437,0.0437,1.071,1033,1033,15,1,115,36.7,113.2,110.4,38.6,39.7,113,38.7,110,39.8,87.3,40.1,35.7,44.7,4.38,4.38,3.84,-2.56,0.032801,1.57605743,0.214365,5.43998964
288.00,2.333,601.953,87.248,94.519,4899.574,731.407,0.9721,76.7,0.086,58.2,0.491,34.1,96.0,109,78.4,5.08,3.99,5.26,537.547,2242.89,12.10,0.029,0.0482,36.6322,6.50,4.92,37.1,32.8,0.814,270,219,112,0.98,0.870,0.0437,0.0437,1.070,1033,1033,15,1,115,36.7,111.8,109.0,39.7,40.7,112,39.9,109,40.9,87.3,40.1,35.6,44.7,4.38,4.38,4.53,-2.76,0.032802,1.57890568,0.214420,5.44970629
289.00,2.333,604.287,87.256,94.319,4897.293,731.058,0.9721,76.7,-0.048,58.1,0.491,34.1,84.3,109,78.2,5.07,3.93,5.26,537.596,2504.50,12.10,0.029,0.0482,36.6467,6.50,6.91,37.1,32.8,0.811,264,215,88,0.87,0.417,0.0437,0.0437,1.070,1033,1033,15,1,159,0.7,114.4,111.7,37.4,38.5,112,39.1,110,40.2,87.3,40.1,35.6,44.7,4.39,4.39,3.65,-3.19,0.032804,1.58175317,0.214499,5.45942457
290.00,2.333,606.620,87.263,94.256,4895.009,730.710,0.9720,76.7,0.033,58.1,0.491,34.1,98.8,109,78.2,5.07,4.01,5.25,537.596,2780.46,12.10,0.029,0.0482,36.6467,6.50,7.63,37.1,32.8,0.814,270,220,117,1.01,0.963,0.0438,0.0438,1.069,1033,1033,15,1,160,0.3,117.9,115.1,34.7,35.9,116,36.6,113,37.9,87.2,40.2,35.6,44.7,4.39,4.39,4.80,-3.59,0.032806,1.58459950,0.214556,5.46914636
291.00,2.333,608.953,87.293,94.178,4892.728,730.361,0.9719,76.7,0.048,58.0,0.491,34.1,78.1,109,78.1,5.06,3.91,5.24,537.596,2499.12,12.10,0.029,0.0482,36.6467,6.50,5.46,37.1,32.8,0.812,269,219,78,0.78,0.255,0.0438,0.0438,1.070,1034,1034,15,1,124,29.5,114.9,112.1,37.3,38.5,114,37.6,112,38.9,87.1,40.2,35.6,44.7,4.39,4.39,3.52,-2.41,0.032810,1.58744590,0.214632,5.47886877
292.00,2.333,611.287,87.315,94.157,4890.445,730.012,0.9719,76.8,0.002,57.9,0.491,34.1,101.8,109,78.1,5.06,4.03,5.24,537.596,2243.17,12.10,0.029,0.0482,36.6467,6.50,4.92,37.1,32.8,0.814,270,220,123,1.04,1.063,0.0438,0.0438,1.070,1033,1033,15,1,115,36.7,113.1,110.3,38.7,39.8,113,38.8,110,39.9,87.2,40.1,35.6,44.7,4.39,4.39,4.97,-3.24,0.032813,1.59029052,0.214694,5.48859211
293.00,2.333,613.620,87.377,94.133,4888.164,729.664,0.9720,76.7,-0.001,57.8,0.490,34.1,80.3,109,78.1,5.05,3.89,5.24,537.596,2242.89,12.10,0.029,0.0482,36.6467,6.50,4.92,37.1,32.8,0.812,270,219,83,0.80,0.330,0.0438,0.0438,1.071,1033,1033,15,1,115,36.7,111.7,108.9,39.7,40.8,111,39.9,109,41.0,87.2,40.1,35.6,44.7,4.39,4.39,3.61,-2.16,0.032815,1.59313628,0.214767,5.49831554
294.00,2.333,615.953,87.415,94.138,4885.881,729.314,0.9720,76.8,-0.024,57.8,0.490,34.1,105.0,109,78.1,5.05,4.01,5.23,537.636,2522.64,12.10,0.029,0.0483,36.6733,6.50,6.99,37.1,32.8,0.813,270,220,130,1.07,1.168,0.0438,0.0438,1.071,1033,1033,15,1,159,0.6,114.6,111.9,37.2,38.3,112,38.9,110,40.1,87.1,40.1,35.6,44.7,4.39,4.39,5.24,-4.35,0.032817,1.59597981,0.214834,5.50803792
295.00,2.333,618.287,87.458,94.149,4883.599,728.965,0.9719,76.7,-0.039,57.7,0.490,34.1,82.7,109,78.1,5.05,3.89,5.23,537.636,2780.40,12.10,0.029,0.0483,36.6733,6.50,7.59,37.1,32.8,0.813,270,219,87,0.83,0.410,0.0438,0.0438,1.072,1033,1033,15,1,160,0.3,117.8,115.0,34.8,36.0,116,36.6,113,37.9,87.1,40.2,35.5,44.7,4.39,4.39,3.79,-2.77,0.032820,1.59882520,0.214904,5.51776049
296.00,2.333,620.620,87.555,94.171,4881.317,728.617,0.9718,76.8,-0.029,57.7,0.490,34.1,108.4,109,78.2,5.05,3.99,5.23,537.636,2479.07,12.10,0.029,0.0483,36.6733,6.50,5.35,37.1,32.8,0.813,269,219,136,1.11,1.263,0.0438,0.0438,1.072,1034,1034,15,1,122,30.6,114.7,111.9,37.4,38.6,114,37.7,111,38.9,87.0,40.2,35.5,44.7,4.39,4.39,5.14,-3.67,0.032824,1.60166820,0.214976,5.52748091
297.00,2.333,622.953,87.609,94.179,4879.034,728.268,0.9718,76.7,0.037,57.6,0.490,34.1,85.2,109,78.2,5.05,3.89,5.22,537.636,2243.09,12.10,0.029,0.0483,36.6733,6.50,4.92,37.1,32.8,0.813,270,220,92,0.85,0.492,0.0438,0.0438,1.072,1033,1033,15,1,115,36.7,112.9,110.1,38.7,39.9,113,38.9,110,40.0,87.0,40.2,35.5,44.7,4.39,4.39,3.90,-2.48,0.032827,1.60451354,0.215043,5.53720204
298.00,2.333,625.287,87.722,94.179,4876.753,727.919,0.9719,76.7,-0.057,57.6,0.489,34.1,108.3,109,78.2,5.05,3.97,5.22,537.636,2242.89,12.10,0.029,0.0483,36.6733,6.50,4.92,37.1,32.8,0.812,268,218,135,1.12,1.246,0.0438,0.0438,1.072,1033,1033,15,1,115,36.7,111.6,108.8,39.8,40.8,111,40.0,109,41.0,87.1,40.1,35.5,44.7,4.40,4.40,4.87,-3.11,0.032829,1.60735651,0.215120,5.54692053
299.00,2.333,627.620,87.782,94.192,4874.470,727.571,0.9719,76.7,0.169,57.5,0.489,34.1,87.7,109,78.2,5.05,3.90,5.22,537.700,2540.53,12.10,0.029,0.0483,36.6977,6.50,7.07,37.1,32.8,0.813,271,220,97,0.88,0.579,0.0439,0.0439,1.072,1033,1033,15,1,159,0.5,114.8,112.1,37.0,38.1,113,38.8,110,39.9,87.1,40.1,35.5,44.7,4.40,4.40,4.17,-3.58,0.032831,1.61020181,0.215184,5.55664031
300.00,2.333,629.953,87.905,94.210,4872.188,727.222,0.9717,76.7,0.668,57.5,0.489,34.1,106.0,109,78.3,5.05,3.95,5.22,537.700,2779.32,12.10,0.029,0.0483,36.6977,6.50,7.55,37.1,32.8,0.812,267,217,131,1.10,1.157,0.0439,0.0439,1.072,1033,1033,15,1,160,0.4,117.7,115.0,34.8,36.0,115,36.7,113,38.0,87.0,40.2,35.5,44.7,4.40,4.40,4.71,-3.59,0.032834,1.61304502,0.215264,5.56635745
301.00,2.333,632.287,87.967,94.212,4869.905,726.873,0.9717,76.7,0.204,57.5,0.489,34.1,90.3,109,78.3,5.05,3.91,5.21,537.700,2458.71,12.10,0.029,0.0483,36.6977,6.50,5.24,37.1,32.8,0.813,271,220,102,0.91,0.668,0.0439,0.0439,1.072,1034,1034,15,1,121,31.5,114.6,111.7,37.5,38.7,114,37.8,111,39.0,86.9,40.2,35.5,44.7,4.40,4.40,4.22,-2.89,0.032838,1.61589023,0.215325,5.57607639
302.00,2.333,634.620,88.094,94.208,4867.624,726.525,0.9717,76.7,-0.072,57.4,0.489,34.1,101.3,109,78.3,5.06,3.93,5.21,537.700,2243.03,12.10,0.029,0.0483,36.6977,6.50,4.92,37.1,32.8,0.811,266,216,121,1.05,0.981,0.0439,0.0439,1.071,1033,1033,15,1,115,36.8,112.9,110.1,38.7,39.9,113,38.9,110,40.0,87.0,40.2,35.4,44.7,4.40,4.40,4.25,-2.85,0.032842,1.61873391,0.215409,5.58579298
303.00,2.333,636.953,88.158,94.202,4865.341,726.176,0.9718,76.7,0.161,57.4,0.489,34.1,93.1,109,78.3,5.06,3.93,5.21,537.700,2242.89,12.10,0.029,0.0483,36.6977,6.50,4.92,37.1,32.8,0.813,271,221,107,0.94,0.760,0.0439,0.0439,1.071,1033,1033,15,1,115,36.8,111.4,108.7,39.8,40.9,111,40.1,108,41.1,87.0,40.1,35.4,44.7,4.40,4.40,4.35,-2.62,0.032843,1.62157901,0.215468,5.59551160
304.00,2.333,639.287,88.286,94.194,4863.060,725.828,0.9718,76.7,-0.079,57.3,0.488,34.1,93.6,109,78.3,5.06,3.90,5.21,537.794,2558.11,12.10,0.029,0.0483,36.7064,6.51,7.15,37.1,32.8,0.810,265,215,106,0.97,0.713,0.0439,0.0439,1.071,1033,1033,15,1,159,0.4,115.1,112.3,36.8,37.9,113,38.6,110,39.8,87.0,40.2,35.4,44.7,4.40,4.40,3.97,-3.55,0.032846,1.62442322,0.215553,5.60522830
305.00,2.333,641.620,88.350,94.195,4860.777,725.479,0.9716,76.7,0.114,57.3,0.488,34.1,95.9,109,78.3,5.06,3.94,5.20,537.794,2777.20,12.10,0.029,0.0483,36.7064,6.51,7.50,37.1,32.8,0.813,272,221,112,0.97,0.856,0.0439,0.0439,1.070,1033,1033,15,1,159,0.5,117.6,114.8,34.9,36.1,115,36.8,112,38.0,86.9,40.2,35.4,44.7,4.40,4.40,4.59,-3.35,0.032848,1.62726796,0.215612,5.61494691
306.00,2.333,643.953,88.480,94.191,4858.496,725.131,0.9716,76.7,-0.053,57.2,0.488,34.1,84.2,109,78.3,5.06,3.88,5.20,537.794,2438.12,12.10,0.029,0.0483,36.7064,6.51,5.13,37.1,32.8,0.811,266,216,89,0.86,0.410,0.0439,0.0439,1.070,1034,1034,15,1,120,32.4,114.5,111.6,37.6,38.7,114,37.8,111,39.0,86.9,40.3,35.4,44.7,4.40,4.40,3.57,-2.46,0.032853,1.63011265,0.215695,5.62466420
307.00,2.333,646.287,88.545,94.187,4856.213,724.782,0.9717,76.7,0.042,57.2,0.488,34.1,98.8,109,78.3,5.06,3.96,5.20,537.794,2242.99,12.10,0.029,0.0483,36.7064,6.51,4.92,37.1,32.8,0.813,272,221,118,1.00,0.954,0.0439,0.0439,1.069,1033,1033,15,1,115,36.8,112.7,109.9,38.8,40.0,113,39.0,110,40.1,86.9,40.2,35.4,44.7,4.41,4.41,4.77,-3.06,0.032855,1.63295705,0.215757,5.63438293
308.00,2.333,648.620,88.675,94.169,4853.932,724.433,0.9717,76.7,0.058,57.1,0.488,34.1,78.3,109,78.3,5.07,3.86,5.20,537.794,2242.89,12.10,0.029,0.0483,36.7064,6.51,4.92,37.1,32.8,0.812,271,220,79,0.78,0.258,0.0440,0.0440,1.069,1033,1033,15,1,115,36.8,111.4,108.6,39.9,40.9,111,40.1,108,41.2,86.9,40.2,35.4,44.7,4.41,4.41,3.50,-2.06,0.032858,1.63580232,0.215837,5.64410117
309.00,2.333,650.953,88.741,94.165,4851.649,724.085,0.9717,76.7,0.003,57.1,0.488,34.1,101.8,109,78.3,5.07,3.98,5.19,537.889,2575.35,12.10,0.029,0.0483,36.7191,6.51,7.22,37.1,32.8,0.813,272,221,124,1.03,1.056,0.0440,0.0440,1.069,1033,1033,15,1,159,0.4,115.3,112.5,36.6,37.8,113,38.4,110,39.6,86.9,40.2,35.3,44.8,4.41,4.41,5.12,-4.31,0.032859,1.63864637,0.215902,5.65382000
310.00,2.333,653.287,88.873,94.165,4849.368,723.736,0.9716,76.7,0.001,57.1,0.488,34.1,80.6,109,78.3,5.07,3.85,5.19,537.889,2774.05,12.10,0.029,0.0483,36.7191,6.51,7.44,37.1,32.8,0.812,272,221,84,0.80,0.331,0.0440,0.0440,1.068,1033,1033,15,1,159,0.7,117.5,114.7,35.0,36.2,115,36.8,112,38.1,86.8,40.2,35.3,44.8,4.41,4.41,3.66,-2.64,0.032863,1.64149200,0.215979,5.66353932
311.00,2.333,655.620,88.939,94.162,4847.086,723.388,0.9715,76.7,-0.018,57.0,0.488,34.1,104.9,109,78.3,5.07,3.96,5.19,537.889,2417.34,12.10,0.029,0.0483,36.7191,6.51,5.02,37.1,32.8,0.813,272,221,130,1.06,1.158,0.0440,0.0440,1.068,1034,1034,15,1,119,33.1,114.3,111.5,37.7,38.8,114,37.9,111,39.1,86.8,40.3,35.3,44.8,4.41,4.41,5.17,-3.61,0.032867,1.64433575,0.216048,5.67325841
312.00,2.333,657.953,89.005,94.159,4844.804,723.039,0.9716,76.7,-0.044,57.0,0.487,34.1,82.9,109,78.3,5.07,3.84,5.19,537.889,2242.96,12.10,0.029,0.0483,36.7191,6.51,4.92,37.1,32.8,0.812,272,221,88,0.82,0.408,0.0440,0.0440,1.067,1033,1033,15,1,115,36.8,112.7,109.8,38.9,40.0,112,39.0,110,40.2,86.8,40.2,35.3,44.8,4.41,4.41,3.77,-2.37,0.032870,1.64718170,0.216121,5.68297881
313.00,2.333,660.287,89.137,94.138,4842.523,722.691,0.9716,76.7,-0.035,57.0,0.487,34.1,108.2,108,78.3,5.08,3.94,5.18,537.889,2242.89,12.10,0.029,0.0483,36.7191,6.51,4.92,37.1,32.8,0.812,271,220,136,1.10,1.249,0.0440,0.0440,1.067,1033,1033,15,1,115,36.8,111.3,108.5,39.9,41.0,111,40.1,108,41.2,86.8,40.2,35.3,44.8,4.41,4.41,5.06,-3.19,0.032872,1.65002539,0.216195,5.69269823
314.00,2.333,662.620,89.204,94.139,4840.241,722.342,0.9716,76.7,-0.017,56.9,0.487,34.1,85.3,108,78.3,5.08,3.84,5.18,538.009,2592.22,12.10,0.029,0.0483,36.7382,6.51,7.29,37.1,32.8,0.812,272,221,93,0.85,0.490,0.0440,0.0440,1.066,1033,1033,15,1,159,0.4,115.5,112.7,36.4,37.6,113,38.3,110,39.5,86.8,40.2,35.3,44.8,4.41,4.41,4.04,-3.54,0.032874,1.65287147,0.216264,5.70241956
315.00,2.333,664.953,89.337,94.141,4837.960,721.993,0.9715,76.7,-0.040,56.9,0.487,34.1,108.1,108,78.4,5.08,3.92,5.18,538.009,2769.87,12.10,0.029,0.0483,36.7382,6.51,7.38,37.1,32.8,0.812,270,219,135,1.10,1.232,0.0440,0.0440,1.066,1033,1033,15,1,159,1.0,117.4,114.6,35.1,36.3,115,36.8,112,38.1,86.7,40.3,35.2,44.8,4.41,4.41,5.01,-3.77,0.032877,1.65571519,0.216343,5.71213942
316.00,2.333,667.287,89.404,94.138,4835.678,721.645,0.9714,76.7,0.106,56.8,0.487,34.1,87.8,108,78.4,5.08,3.85,5.18,538.009,2396.40,12.10,0.029,0.0483,36.7382,6.51,4.91,37.1,32.8,0.812,273,222,97,0.87,0.574,0.0441,0.0441,1.065,1034,1034,15,1,118,33.8,114.2,111.3,37.8,38.9,114,37.9,111,39.2,86.7,40.3,35.2,44.8,4.41,4.41,4.07,-2.75,0.032881,1.65856124,0.216408,5.72186162
317.00,2.333,669.620,89.537,94.118,4833.397,721.296,0.9715,76.7,0.668,56.8,0.487,34.1,105.8,108,78.4,5.08,3.90,5.17,538.009,2242.94,12.10,0.029,0.0483,36.7382,6.51,4.92,37.1,32.8,0.811,269,218,131,1.08,1.140,0.0441,0.0441,1.065,1033,1033,15,1,114,36.8,112.6,109.8,38.9,40.0,112,39.1,110,40.2,86.7,40.2,35.2,44.8,4.42,4.42,4.64,-3.10,0.032884,1.66140522,0.216490,5.73158208
