Time(s),Hemorrhage-Spleen-FlowRate(mL/s),Hemorrhage-Spleen-TotalBloodLost(mL),TotalHemorrhageRate(mL/s),TotalHemorrhagedVolume(mL),HeartRate(1/min),MeanArterialPressure(mmHg),BloodVolume(mL),RespirationRate(1/min),OxygenSaturation,Patient-Weight(kg),ECG-Lead3ElectricPotential(mV),HeartStrokeVolume(mL),HeartEjectionFraction,ExtravascularFluidVolume(L),ArterialPressure(mmHg),SystolicArterialPressure(mmHg),DiastolicArterialPressure(mmHg),CardiacOutput(L/min),HemoglobinContent(g),CentralVenousPressure(mmHg),PulmonaryCapillariesWedgePressure(mmHg),TidalVolume(mL),TotalLungVolume(mL),CarbonDioxideSaturation,EndTidalCarbonDioxideFraction,EndTidalCarbonDioxidePressure(mmHg),TotalAlveolarVentilation(L/min),TranspulmonaryPressure(cmH2O),CoreTemperature(degC),SkinTemperature(degC),RespiratoryExchangeRatio,OxygenConsumptionRate(mL/min),CarbonDioxideProductionRate(mL/min),GlomerularFiltrationRate(mL/min),RenalBloodFlow(L/min),UrineProductionRate(mL/min),LeftAfferentArterioleResistance(mmHg_min/mL),RightAfferentArterioleResistance(mmHg_min/mL),SystemicVascularResistance(mmHg_s/mL),LeftAlveoli-Pressure(cmH2O),RightAlveoli-Pressure(cmH2O),Pericardium-Volume(mL),Pericardium-Pressure(mmHg),Carina-Oxygen-PartialPressure(mmHg),Carina-CarbonDioxide-PartialPressure(mmHg),LeftLungPulmonary-Oxygen-PartialPressure(mmHg),RightLungPulmonary-Oxygen-PartialPressure(mmHg),LeftLungPulmonary-CarbonDioxide-PartialPressure(mmHg),RightLungPulmonary-CarbonDioxide-PartialPressure(mmHg),LeftAlveoli-Oxygen-PartialPressure(mmHg),LeftAlveoli-CarbonDioxide-PartialPressure(mmHg),RightAlveoli-Oxygen-PartialPressure(mmHg),RightAlveoli-CarbonDioxide-PartialPressure(mmHg),Aorta-Oxygen-PartialPressure(mmHg),Aorta-CarbonDioxide-PartialPressure(mmHg),VenaCava-Oxygen-PartialPressure(mmHg),VenaCava-CarbonDioxide-PartialPressure(mmHg),RightTubules-Sodium-Concentration(g/L),LeftTubules-Sodium-Concentration(g/L),Oxygen-AlveolarTransfer(mL/s),CarbonDioxide-AlveolarTransfer(mL/s),Epinephrine-BloodConcentration(ug/L),Epinephrine-SystemicMassCleared(ug),Norepinephrine-BloodConcentration(ug/L),Norepinephrine-SystemicMassCleared(ug)
0.00,-1.$,-1.$,0,0,72.000,95.323,5488.939,12.000,0.9741,77.1,-0.010,80.4,0.566,34.1,106.6,114,73.6,5.79,821,4.80,6.46,535.260,2355.33,0.029,0.0476,36.1797,6.42,6.15,37.0,32.9,0.820,252,207,123,1.17,1.345,0.0423,0.0423,0.940,1033,1033,15,1,151,7.1,112.0,109.3,38.8,39.7,111,39.7,108,40.6,89.0,39.4,38.2,44.3,4.03,4.03,5.00,-3.63,0.032221,0.76050182,0.198656,2.67364139
1.00,-1.$,-1.$,0,0,72.002,95.325,5488.978,12.000,0.9741,77.0,0.161,80.4,0.566,34.1,93.2,114,73.6,5.79,821,4.72,6.46,535.260,2742.08,0.029,0.0476,36.1797,6.42,7.73,37.0,32.9,0.820,252,206,98,1.02,0.874,0.0423,0.0423,0.940,1033,1033,15,1,160,0.3,117.6,114.8,34.5,35.6,115,36.3,112,37.5,89.0,39.5,38.2,44.3,4.03,4.03,4.33,-3.83,0.032222,0.76334229,0.198683,2.68322370
2.00,-1.$,-1.$,0,0,72.004,95.331,5489.018,12.000,0.9740,77.0,-0.006,80.4,0.566,34.1,81.9,114,73.6,5.79,821,4.64,6.46,535.260,2643.54,0.029,0.0476,36.1797,6.42,6.35,37.0,32.9,0.819,251,205,78,0.88,0.477,0.0423,0.0423,0.940,1034,1034,15,1,139,16.8,115.8,113.0,36.1,37.1,115,36.9,112,38.0,88.9,39.5,38.2,44.3,4.03,4.03,3.67,-2.66,0.032224,0.76618227,0.198720,2.69280623
3.00,-1.$,-1.$,0,0,72.008,95.332,5489.060,12.000,0.9740,77.0,0.041,80.4,0.566,34.1,76.1,114,73.6,5.79,821,4.65,6.46,535.260,2247.81,0.029,0.0476,36.1797,6.42,4.87,37.0,32.9,0.817,248,203,67,0.83,0.246,0.0423,0.0423,0.940,1033,1033,15,1,115,36.2,113.6,110.7,37.8,38.9,113,37.9,111,39.0,89.0,39.5,38.2,44.3,4.03,4.03,3.20,-2.17,0.032227,0.76902121,0.198764,2.70238952
4.00,-1.$,-1.$,0,0,72.009,95.318,5489.100,12.000,0.9741,77.1,0.214,80.3,0.566,34.1,111.0,114,73.6,5.79,821,4.72,6.46,535.260,2242.89,0.029,0.0476,36.1797,6.42,4.92,37.0,32.9,0.818,250,204,130,1.25,1.438,0.0423,0.0423,0.940,1033,1033,15,1,115,36.2,112.2,109.4,38.8,39.8,112,39.0,109,40.0,89.0,39.4,38.2,44.3,4.03,4.03,4.38,-2.96,0.032228,0.77185945,0.198796,2.71197419
5.00,-1.$,-1.$,0,0,72.011,95.320,5489.138,12.000,0.9741,77.1,-0.024,80.4,0.566,34.1,110.4,114,73.6,5.79,821,4.78,6.46,534.866,2355.32,0.029,0.0476,36.2013,6.42,6.15,37.0,32.9,0.820,252,207,130,1.22,1.470,0.0423,0.0423,0.940,1033,1033,15,1,151,7.1,112.0,109.3,38.8,39.8,111,39.7,108,40.6,89.0,39.4,38.2,44.3,4.03,4.03,5.10,-3.74,0.032227,0.77469907,0.198814,2.72156180
6.00,-1.$,-1.$,0,0,72.012,95.322,5489.177,12.000,0.9741,77.1,0.098,80.4,0.566,34.1,96.3,114,73.6,5.79,821,4.75,6.46,534.866,2741.94,0.029,0.0476,36.2013,6.42,7.73,37.0,32.9,0.820,252,207,104,1.05,0.984,0.0423,0.0423,0.940,1033,1033,15,1,160,0.3,117.6,114.8,34.5,35.6,115,36.3,112,37.5,89.0,39.5,38.2,44.3,4.03,4.03,4.52,-3.97,0.032228,0.77753983,0.198838,2.73115146
7.00,-1.$,-1.$,0,0,72.013,95.328,5489.217,12.000,0.9740,77.0,0.098,80.4,0.566,34.1,84.5,114,73.6,5.79,821,4.65,6.46,534.866,2643.24,0.029,0.0476,36.2013,6.42,6.35,37.0,32.9,0.819,251,206,83,0.91,0.568,0.0423,0.0423,0.939,1034,1034,15,1,139,16.9,115.8,113.0,36.1,37.2,115,36.9,112,38.1,89.0,39.6,38.2,44.3,4.04,4.04,3.80,-2.76,0.032230,0.78038030,0.198873,2.74074125
8.00,-1.$,-1.$,0,0,72.016,95.331,5489.258,12.000,0.9740,77.0,0.017,80.4,0.566,34.1,74.6,114,73.6,5.79,821,4.63,6.46,534.866,2247.79,0.029,0.0476,36.2013,6.42,4.87,37.0,32.9,0.818,250,205,65,0.80,0.224,0.0423,0.0423,0.939,1033,1033,15,1,115,36.2,113.6,110.7,37.9,38.9,113,38.0,111,39.0,89.0,39.6,38.2,44.3,4.04,4.04,3.29,-2.21,0.032233,0.78321991,0.198916,2.75033185
9.00,-1.$,-1.$,0,0,72.017,95.319,5489.298,12.000,0.9741,77.1,-0.090,80.3,0.566,34.1,105.9,114,73.6,5.79,821,4.70,6.46,534.866,2242.89,0.029,0.0476,36.2013,6.42,4.92,37.0,32.9,0.817,249,203,120,1.19,1.243,0.0423,0.0423,0.940,1033,1033,15,1,115,36.3,112.2,109.4,38.9,39.8,112,39.0,109,40.0,89.0,39.5,38.2,44.3,4.04,4.04,4.00,-2.70,0.032234,0.78605845,0.198955,2.75992343
10.00,-1.$,-1.$,0,0,72.018,95.320,5489.337,12.000,0.9741,77.1,-0.029,80.4,0.566,34.1,113.6,114,73.6,5.79,821,4.77,6.46,534.667,2355.32,0.029,0.0477,36.2227,6.42,6.15,37.0,32.9,0.819,252,206,135,1.26,1.563,0.0423,0.0423,0.939,1033,1033,15,1,151,7.1,112.0,109.3,38.8,39.8,111,39.7,108,40.7,89.1,39.5,38.2,44.3,4.04,4.04,5.07,-3.75,0.032234,0.78889800,0.198974,2.76951778
11.00,-1.$,-1.$,0,0,72.019,95.322,5489.375,12.000,0.9740,77.1,0.043,80.4,0.566,34.1,99.6,114,73.6,5.79,821,4.78,6.46,534.667,2741.96,0.029,0.0477,36.2227,6.42,7.73,37.0,32.9,0.820,252,207,110,1.09,1.099,0.0423,0.0423,0.939,1033,1033,15,1,160,0.3,117.7,114.9,34.5,35.6,115,36.4,112,37.5,89.0,39.5,38.2,44.3,4.04,4.04,4.72,-4.12,0.032235,0.79173898,0.198996,2.77911465
12.00,-1.$,-1.$,0,0,72.020,95.328,5489.415,12.000,0.9740,77.0,0.205,80.4,0.566,34.1,87.3,114,73.6,5.79,821,4.67,6.46,534.667,2643.24,0.029,0.0477,36.2227,6.42,6.35,37.0,32.9,0.819,251,206,88,0.95,0.665,0.0423,0.0423,0.939,1034,1034,15,1,139,16.9,115.8,113.1,36.1,37.2,115,36.9,112,38.1,89.0,39.6,38.2,44.3,4.04,4.04,3.94,-2.86,0.032237,0.79457994,0.199029,2.78871183
13.00,-1.$,-1.$,0,0,72.022,95.331,5489.456,12.000,0.9740,77.0,-0.032,80.4,0.566,34.1,76.9,114,73.6,5.79,821,4.62,6.46,534.667,2247.79,0.029,0.0477,36.2227,6.42,4.87,37.0,32.9,0.818,250,205,69,0.83,0.303,0.0423,0.0423,0.939,1033,1033,15,1,115,36.2,113.6,110.7,37.9,38.9,113,38.0,111,39.1,89.0,39.6,38.2,44.3,4.04,4.04,3.40,-2.29,0.032240,0.79742021,0.199070,2.79830975
14.00,-1.$,-1.$,0,0,72.022,95.320,5489.497,12.000,0.9741,77.0,-0.073,80.3,0.566,34.1,97.5,114,73.6,5.79,821,4.68,6.46,534.667,2242.89,0.029,0.0477,36.2227,6.42,4.92,37.0,32.9,0.816,247,202,105,1.10,0.939,0.0423,0.0423,0.940,1033,1033,15,1,115,36.3,112.3,109.5,38.9,39.9,112,39.1,109,40.1,89.0,39.5,38.2,44.3,4.04,4.04,3.60,-2.40,0.032242,0.80025926,0.199114,2.80790843
15.00,-1.$,-1.$,0,0,72.023,95.321,5489.536,12.000,0.9741,77.1,-0.041,80.4,0.566,34.1,114.3,114,73.6,5.79,821,4.75,6.46,534.684,2355.33,0.029,0.0477,36.2435,6.42,6.15,37.0,32.9,0.819,251,206,136,1.27,1.576,0.0423,0.0423,0.939,1033,1033,15,1,151,7.1,112.1,109.3,38.9,39.8,111,39.7,108,40.7,89.1,39.5,38.2,44.3,4.04,4.04,4.94,-3.69,0.032242,0.80309879,0.199135,2.81750952
16.00,-1.$,-1.$,0,0,72.023,95.322,5489.574,12.000,0.9740,77.1,0.021,80.4,0.566,34.1,103.0,114,73.6,5.79,821,4.81,6.46,534.684,2742.01,0.029,0.0477,36.2435,6.42,7.73,37.0,32.9,0.820,252,207,116,1.13,1.219,0.0423,0.0423,0.939,1033,1033,15,1,160,0.3,117.7,114.9,34.5,35.6,115,36.4,112,37.6,89.0,39.6,38.2,44.3,4.04,4.04,4.93,-4.29,0.032242,0.80593986,0.199156,2.82711339
17.00,-1.$,-1.$,0,0,72.024,95.328,5489.613,12.000,0.9740,77.0,0.205,80.4,0.566,34.1,90.1,114,73.6,5.79,821,4.69,6.46,534.684,2643.24,0.029,0.0477,36.2435,6.42,6.35,37.0,32.9,0.819,252,206,93,0.98,0.765,0.0423,0.0423,0.939,1034,1034,15,1,139,16.9,115.8,113.1,36.2,37.2,115,37.0,112,38.1,89.0,39.6,38.2,44.3,4.04,4.04,4.09,-2.97,0.032245,0.80878132,0.199186,2.83671813
18.00,-1.$,-1.$,0,0,72.025,95.331,5489.654,12.000,0.9740,77.0,-0.039,80.4,0.566,34.1,79.4,114,73.6,5.79,821,4.63,6.46,534.684,2247.79,0.029,0.0477,36.2435,6.42,4.87,37.0,32.9,0.819,251,205,74,0.85,0.387,0.0423,0.0423,0.939,1033,1033,15,1,115,36.2,113.6,110.7,37.9,39.0,113,38.0,111,39.1,89.0,39.6,38.2,44.3,4.04,4.04,3.52,-2.38,0.032248,0.81162221,0.199226,2.84632337
19.00,-1.$,-1.$,0,0,72.025,95.322,5489.696,12.000,0.9740,77.0,-0.048,80.3,0.566,34.1,86.5,114,73.6,5.79,821,4.67,6.46,534.684,2242.89,0.029,0.0477,36.2435,6.42,4.92,37.0,32.9,0.816,247,202,85,0.97,0.560,0.0423,0.0423,0.939,1033,1033,15,1,115,36.3,112.2,109.5,38.9,39.9,112,39.1,109,40.1,89.1,39.5,38.2,44.3,4.05,4.05,3.30,-2.14,0.032250,0.81446192,0.199272,2.85592931
20.00,-1.$,-1.$,0,0,72.025,95.321,5489.734,12.000,0.9741,77.1,0.017,80.4,0.566,34.1,113.5,114,73.6,5.79,821,4.73,6.46,534.727,2355.35,0.029,0.0477,36.2626,6.42,6.15,37.0,32.9,0.818,250,205,135,1.27,1.538,0.0423,0.0423,0.939,1033,1033,15,1,151,7.1,112.1,109.4,38.9,39.8,111,39.7,108,40.7,89.1,39.5,38.2,44.3,4.05,4.05,4.72,-3.57,0.032250,0.81730149,0.199298,2.86553718
21.00,-1.$,-1.$,0,0,72.026,95.326,5489.773,12.000,0.9740,77.1,-0.010,80.4,0.566,34.1,106.6,114,73.6,5.79,821,4.80,6.46,534.727,2742.07,0.029,0.0477,36.2626,6.42,7.73,37.0,32.9,0.820,252,207,123,1.17,1.342,0.0423,0.0423,0.939,1033,1033,15,1,160,0.3,117.7,114.9,34.5,35.7,115,36.4,112,37.6,89.0,39.6,38.2,44.3,4.05,4.05,5.13,-4.46,0.032251,0.82014260,0.199317,2.87514798
22.00,-1.$,-1.$,0,0,72.026,95.330,5489.812,12.000,0.9740,77.0,0.161,80.4,0.566,34.1,93.2,114,73.6,5.79,821,4.72,6.46,534.727,2643.24,0.029,0.0477,36.2626,6.42,6.35,37.0,32.9,0.820,252,206,99,1.02,0.870,0.0423,0.0423,0.939,1034,1034,15,1,139,16.9,115.8,113.1,36.2,37.2,115,37.0,112,38.1,89.0,39.6,38.2,44.3,4.05,4.05,4.25,-3.08,0.032253,0.82298449,0.199345,2.88476028
23.00,-1.$,-1.$,0,0,72.026,95.331,5489.852,12.000,0.9740,77.0,-0.006,80.4,0.566,34.1,81.9,114,73.6,5.79,821,4.64,6.46,534.727,2247.78,0.029,0.0477,36.2626,6.42,4.87,37.0,32.9,0.819,251,205,78,0.88,0.474,0.0423,0.0423,0.939,1033,1033,15,1,115,36.3,113.6,110.7,37.9,39.0,113,38.0,111,39.1,89.0,39.6,38.2,44.3,4.05,4.05,3.65,-2.46,0.032256,0.82582596,0.199383,2.89437286
24.00,-1.$,-1.$,0,0,72.026,95.322,5489.894,12.000,0.9740,77.0,0.041,80.4,0.566,34.1,76.1,114,73.6,5.79,821,4.65,6.46,534.727,2242.89,0.029,0.0477,36.2626,6.42,4.92,37.0,32.9,0.817,248,203,67,0.83,0.244,0.0423,0.0423,0.939,1033,1033,15,1,115,36.3,112.2,109.5,38.9,39.9,112,39.1,109,40.1,89.1,39.6,38.2,44.3,4.05,4.05,3.19,-2.02,0.032258,0.82866638,0.199428,2.90398618
25.00,-1.$,-1.$,0,0,72.026,95.321,5489.933,12.000,0.9741,77.1,0.214,80.4,0.566,34.1,111.0,114,73.6,5.79,821,4.72,6.46,534.776,2355.36,0.029,0.0477,36.2807,6.42,6.15,37.0,32.9,0.818,250,204,130,1.25,1.434,0.0423,0.0423,0.939,1033,1033,15,1,151,7.1,112.1,109.4,38.9,39.8,111,39.7,108,40.7,89.1,39.6,38.2,44.3,4.05,4.05,4.41,-3.37,0.032258,0.83150610,0.199461,2.91360092
26.00,-1.$,-1.$,0,0,72.026,95.326,5489.971,12.000,0.9740,77.1,-0.024,80.4,0.566,34.1,110.4,114,73.6,5.79,821,4.79,6.46,534.776,2742.13,0.029,0.0477,36.2807,6.42,7.73,37.0,32.9,0.820,252,207,130,1.22,1.467,0.0423,0.0423,0.939,1033,1033,15,1,160,0.3,117.7,114.9,34.5,35.7,115,36.4,112,37.6,89.0,39.6,38.2,44.3,4.05,4.05,5.25,-4.60,0.032259,0.83434718,0.199480,2.92321862
27.00,-1.$,-1.$,0,0,72.026,95.329,5490.010,12.000,0.9739,77.1,0.098,80.4,0.566,34.1,96.3,114,73.6,5.79,821,4.75,6.46,534.776,2643.24,0.029,0.0477,36.2807,6.42,6.35,37.0,32.9,0.820,252,207,104,1.05,0.981,0.0423,0.0423,0.939,1034,1034,15,1,139,16.9,115.9,113.1,36.2,37.3,115,37.0,112,38.2,89.0,39.7,38.2,44.3,4.05,4.05,4.43,-3.21,0.032261,0.83718941,0.199506,2.93283839
28.00,-1.$,-1.$,0,0,72.026,95.331,5490.051,12.000,0.9740,77.0,0.098,80.4,0.566,34.1,84.5,114,73.6,5.79,821,4.65,6.46,534.776,2247.77,0.029,0.0477,36.2807,6.42,4.87,37.0,32.9,0.819,251,206,83,0.91,0.566,0.0423,0.0423,0.939,1033,1033,15,1,115,36.3,113.6,110.7,38.0,39.0,113,38.1,111,39.2,89.0,39.6,38.2,44.3,4.06,4.06,3.78,-2.56,0.032264,0.84003138,0.199541,2.94245832
29.00,-1.$,-1.$,0,0,72.025,95.323,5490.092,12.000,0.9740,77.0,0.017,80.4,0.566,34.1,74.6,114,73.6,5.79,821,4.63,6.46,534.776,2242.89,0.029,0.0477,36.2807,6.42,4.92,37.0,32.9,0.818,250,205,65,0.80,0.222,0.0423,0.0423,0.939,1033,1033,15,1,115,36.3,112.2,109.4,39.0,40.0,112,39.1,109,40.2,89.1,39.6,38.2,44.3,4.06,4.06,3.28,-2.07,0.032266,0.84287251,0.199585,2.95207905
30.00,-1.$,-1.$,0,0,72.025,95.322,5490.132,12.000,0.9741,77.1,-0.090,80.4,0.566,34.1,105.9,114,73.6,5.79,821,4.70,6.46,534.832,2355.38,0.029,0.0478,36.2986,6.42,6.15,37.0,32.9,0.817,249,203,120,1.19,1.239,0.0423,0.0423,0.939,1033,1033,15,1,151,7.1,112.1,109.4,38.9,39.9,111,39.8,108,40.7,89.1,39.6,38.2,44.3,4.06,4.06,4.03,-3.12,0.032267,0.84571255,0.199625,2.96170078
31.00,1,0.980,1,0.980,72.024,95.543,5489.170,12.000,0.9740,77.1,-0.029,80.3,0.565,34.1,114.2,114,73.6,5.79,821,4.77,6.46,534.832,2742.20,0.029,0.0478,36.2986,6.42,7.73,37.0,32.9,0.819,252,206,136,1.27,1.581,0.0423,0.0423,0.942,1033,1033,15,1,160,0.3,117.7,114.9,34.5,35.7,115,36.4,112,37.6,89.1,39.6,38.2,44.3,4.06,4.06,5.23,-4.62,0.032267,0.84855397,0.199632,2.97132551
32.00,1,1.980,1,1.980,72.018,95.944,5488.209,12.000,0.9739,77.1,0.043,80.1,0.564,34.1,100.3,115,74.1,5.77,821,4.78,6.46,534.832,2643.23,0.029,0.0478,36.2986,6.42,6.35,37.0,32.9,0.820,252,207,111,1.10,1.124,0.0423,0.0423,0.948,1034,1034,15,1,139,16.9,115.9,113.1,36.2,37.3,115,37.0,112,38.2,89.0,39.7,38.2,44.3,4.06,4.06,4.63,-3.37,0.032270,0.85139825,0.199642,2.98095403
33.00,1,2.980,1,2.980,71.994,96.011,5487.249,12.000,0.9740,77.0,0.205,80.1,0.564,34.1,87.8,115,74.3,5.77,821,4.68,6.46,534.832,2247.77,0.029,0.0478,36.2986,6.42,4.87,37.0,32.9,0.819,252,206,89,0.96,0.684,0.0423,0.0423,0.949,1033,1033,15,1,115,36.3,113.6,110.7,38.0,39.1,113,38.1,111,39.2,89.0,39.7,38.2,44.3,4.06,4.06,3.92,-2.65,0.032272,0.85424377,0.199659,2.99058519
34.00,1,3.980,1,3.980,71.896,95.758,5486.291,12.000,0.9740,77.0,-0.032,80.3,0.564,34.1,77.3,115,74.1,5.77,821,4.62,6.47,534.832,2242.89,0.029,0.0478,36.2986,6.42,4.92,37.0,32.9,0.819,250,205,70,0.84,0.315,0.0423,0.0423,0.947,1033,1033,15,1,115,36.4,112.2,109.4,39.0,40.0,112,39.2,109,40.2,89.1,39.6,38.2,44.3,4.06,4.06,3.39,-2.14,0.032274,0.85708914,0.199685,3.00022027
35.00,1,4.980,1,4.980,71.832,95.601,5485.333,12.048,0.9741,77.0,-0.073,80.3,0.565,34.1,97.7,115,73.9,5.77,821,4.69,6.47,534.892,2364.45,0.029,0.0478,36.3164,6.44,6.21,37.0,32.9,0.816,248,202,104,1.11,0.942,0.0423,0.0423,0.945,1033,1033,15,1,152,6.0,112.2,109.5,38.8,39.8,111,39.7,108,40.7,89.1,39.6,38.2,44.3,4.06,4.06,3.65,-2.89,0.032275,0.85993323,0.199712,3.00985970
36.00,1,5.980,1,5.980,71.765,95.475,5484.373,12.048,0.9740,77.1,-0.041,80.4,0.565,34.1,114.3,114,73.8,5.77,821,4.76,6.47,534.892,2746.27,0.029,0.0478,36.3164,6.44,7.74,37.0,32.9,0.819,251,206,136,1.28,1.574,0.0423,0.0423,0.944,1033,1033,15,1,160,0.3,117.8,115.0,34.5,35.7,116,36.4,113,37.6,89.1,39.7,38.2,44.3,4.06,4.06,5.11,-4.53,0.032276,0.86277735,0.199717,3.01950497
37.00,1,6.980,1,6.980,71.699,95.381,5483.413,12.048,0.9739,77.1,0.021,80.4,0.565,34.1,103.0,114,73.7,5.77,820,4.82,6.47,534.892,2635.43,0.029,0.0478,36.3164,6.44,6.30,37.1,32.9,0.820,252,207,116,1.14,1.213,0.0423,0.0423,0.943,1034,1034,15,1,138,17.9,115.8,113.0,36.3,37.3,115,37.0,112,38.2,89.0,39.7,38.2,44.3,4.07,4.07,4.84,-3.54,0.032278,0.86562248,0.199720,3.02915589
38.00,1,7.980,1,7.980,71.638,95.319,5482.454,12.048,0.9740,77.0,0.205,80.5,0.566,34.1,90.1,114,73.6,5.76,820,4.71,6.47,534.892,2246.98,0.029,0.0478,36.3164,6.44,4.88,37.1,32.9,0.820,252,206,93,0.99,0.758,0.0423,0.0423,0.943,1033,1033,15,1,115,36.3,113.6,110.7,38.0,39.1,113,38.1,111,39.2,89.1,39.7,38.2,44.3,4.07,4.07,4.07,-2.75,0.032280,0.86846745,0.199733,3.03880977
39.00,1,8.980,1,8.980,71.583,95.285,5481.497,12.048,0.9740,77.0,-0.039,80.5,0.566,34.1,79.3,114,73.6,5.76,820,4.64,6.47,534.892,2242.89,0.029,0.0478,36.3164,6.44,4.92,37.1,32.9,0.819,251,205,73,0.86,0.380,0.0423,0.0423,0.943,1033,1033,15,1,115,36.4,112.2,109.4,39.0,40.0,112,39.2,109,40.2,89.1,39.6,38.2,44.3,4.07,4.07,3.52,-2.22,0.032282,0.87131134,0.199756,3.04846538
40.00,1,9.980,1,9.980,71.490,95.267,5480.540,12.048,0.9741,77.0,-0.048,80.5,0.566,34.1,86.4,114,73.5,5.76,820,4.68,6.47,534.955,2373.60,0.029,0.0478,36.3227,6.45,6.26,37.1,32.9,0.816,248,202,84,0.97,0.556,0.0423,0.0423,0.944,1033,1033,15,1,154,5.1,112.4,109.7,38.7,39.7,111,39.7,108,40.7,89.1,39.6,38.2,44.3,4.07,4.07,3.36,-2.71,0.032283,0.87415360,0.199785,3.05812221
41.00,1,10.980,1,10.980,71.454,95.282,5479.581,12.048,0.9740,77.1,0.017,80.5,0.566,34.1,113.5,114,73.5,5.75,820,4.75,6.47,534.955,2750.11,0.029,0.0478,36.3227,6.45,7.74,37.1,32.9,0.818,251,205,135,1.28,1.533,0.0423,0.0423,0.944,1033,1033,15,1,160,0.3,117.9,115.1,34.5,35.6,116,36.4,113,37.6,89.1,39.7,38.2,44.3,4.07,4.07,4.89,-4.36,0.032283,0.87699535,0.199794,3.06778088
42.00,1,11.980,1,11.980,71.422,95.300,5478.622,12.048,0.9739,77.1,-0.022,80.5,0.566,34.1,106.6,114,73.5,5.75,820,4.82,6.47,534.955,2627.46,0.029,0.0478,36.3227,6.45,6.24,37.1,32.9,0.820,253,207,123,1.18,1.336,0.0423,0.0423,0.945,1034,1034,15,1,137,18.8,115.8,113.0,36.4,37.4,115,37.1,112,38.2,89.0,39.7,38.2,44.3,4.07,4.07,5.04,-3.71,0.032285,0.87983840,0.199796,3.07744195
43.00,1,12.980,1,12.980,71.395,95.317,5477.663,12.048,0.9740,77.0,0.135,80.6,0.566,34.1,93.1,114,73.6,5.75,820,4.74,6.47,534.955,2246.33,0.029,0.0478,36.3227,6.45,4.89,37.1,32.9,0.820,252,207,98,1.02,0.866,0.0423,0.0423,0.945,1033,1033,15,1,115,36.3,113.5,110.7,38.1,39.1,113,38.2,111,39.3,89.1,39.7,38.2,44.3,4.07,4.07,4.23,-2.87,0.032287,0.88268206,0.199809,3.08710364
44.00,1,13.980,1,13.980,71.371,95.331,5476.706,12.048,0.9740,77.0,0.033,80.6,0.566,34.1,81.8,114,73.6,5.75,819,4.66,6.47,534.955,2242.89,0.029,0.0478,36.3227,6.45,4.92,37.1,32.9,0.819,252,206,78,0.89,0.470,0.0423,0.0423,0.945,1033,1033,15,1,115,36.4,112.2,109.4,39.1,40.1,112,39.3,109,40.3,89.1,39.6,38.2,44.3,4.07,4.07,3.64,-2.30,0.032289,0.88552517,0.199830,3.09676451
45.00,1,14.980,1,14.980,71.331,95.344,5475.749,12.048,0.9741,77.0,0.037,80.6,0.566,34.1,76.1,114,73.6,5.75,819,4.67,6.47,535.019,2382.80,0.029,0.0478,36.3391,6.45,6.31,37.1,32.9,0.817,249,204,67,0.83,0.242,0.0423,0.0423,0.946,1033,1033,15,1,154,4.4,112.5,109.8,38.6,39.6,111,39.7,108,40.7,89.1,39.6,38.2,44.3,4.08,4.08,3.27,-2.66,0.032290,0.88836710,0.199860,3.10642495
46.00,1,15.980,1,15.980,71.314,95.354,5474.791,12.048,0.9740,77.1,0.131,80.6,0.566,34.1,111.1,114,73.6,5.75,819,4.73,6.47,535.019,2753.72,0.029,0.0478,36.3391,6.45,7.74,37.1,32.9,0.818,251,205,130,1.25,1.433,0.0423,0.0423,0.946,1033,1033,15,1,160,0.3,117.9,115.1,34.5,35.6,116,36.3,113,37.5,89.1,39.7,38.2,44.3,4.08,4.08,4.57,-4.10,0.032290,0.89120822,0.199878,3.11608558
47.00,1,16.980,1,16.980,71.299,95.359,5473.831,12.048,0.9739,77.1,-0.026,80.6,0.566,34.1,110.5,114,73.6,5.75,819,4.80,6.47,535.019,2619.30,0.029,0.0478,36.3391,6.45,6.19,37.1,32.9,0.820,253,208,130,1.23,1.464,0.0423,0.0423,0.946,1034,1034,15,1,136,19.7,115.7,112.9,36.4,37.5,115,37.1,112,38.3,89.1,39.7,38.2,44.3,4.08,4.08,5.16,-3.84,0.032292,0.89405061,0.199882,3.12574794
48.00,1,17.980,1,17.980,71.286,95.361,5472.873,12.048,0.9740,77.0,0.077,80.6,0.566,34.1,96.3,114,73.6,5.75,819,4.77,6.47,535.019,2245.77,0.029,0.0478,36.3391,6.45,4.89,37.1,32.9,0.820,253,208,104,1.06,0.977,0.0423,0.0423,0.946,1033,1033,15,1,115,36.4,113.5,110.7,38.1,39.2,113,38.2,111,39.3,89.1,39.7,38.2,44.3,4.08,4.08,4.41,-2.98,0.032294,0.89689412,0.199893,3.13541116
49.00,1,18.980,1,18.980,71.273,95.360,5471.915,12.048,0.9740,77.0,0.148,80.6,0.566,34.1,84.5,114,73.6,5.75,819,4.67,6.48,535.019,2242.89,0.029,0.0478,36.3391,6.45,4.92,37.1,32.9,0.819,253,207,83,0.92,0.562,0.0424,0.0424,0.946,1033,1033,15,1,115,36.4,112.2,109.4,39.1,40.1,112,39.3,109,40.3,89.1,39.7,38.2,44.3,4.08,4.08,3.77,-2.39,0.032296,0.89973731,0.199915,3.14507330
50.00,1,19.980,1,19.980,71.252,95.348,5470.959,12.048,0.9741,77.0,0.021,80.6,0.566,34.1,74.6,114,73.6,5.75,818,4.65,6.48,535.085,2392.05,0.029,0.0478,36.3573,6.45,6.36,37.1,32.9,0.818,252,206,65,0.80,0.218,0.0424,0.0424,0.946,1033,1033,15,1,155,3.7,112.7,110.0,38.5,39.5,111,39.7,109,40.6,89.2,39.6,38.2,44.3,4.08,4.08,3.36,-2.76,0.032297,0.90257955,0.199945,3.15473505
51.00,1,20.980,1,20.980,71.244,95.350,5470.002,12.048,0.9740,77.1,-0.090,80.7,0.566,34.1,106.0,114,73.6,5.75,818,4.72,6.48,535.085,2757.11,0.029,0.0478,36.3573,6.45,7.74,37.1,32.9,0.817,250,204,120,1.20,1.237,0.0424,0.0424,0.946,1033,1033,15,1,160,0.3,118.0,115.2,34.5,35.6,116,36.3,113,37.5,89.1,39.7,38.2,44.3,4.08,4.08,4.17,-3.76,0.032298,0.90542061,0.199970,3.16439663
52.00,1,21.980,1,21.980,71.237,95.349,5469.042,12.048,0.9739,77.1,-0.035,80.7,0.566,34.1,113.6,114,73.6,5.75,818,4.78,6.48,535.085,2610.99,0.029,0.0478,36.3573,6.45,6.14,37.1,32.9,0.819,253,207,135,1.27,1.556,0.0424,0.0424,0.946,1034,1034,15,1,135,20.6,115.7,112.9,36.5,37.5,115,37.1,112,38.3,89.1,39.8,38.2,44.3,4.08,4.08,5.13,-3.86,0.032300,0.90826258,0.199977,3.17405984
53.00,1,22.980,1,22.980,71.231,95.347,5468.083,12.048,0.9740,77.1,0.035,80.7,0.566,34.1,99.6,114,73.6,5.75,818,4.79,6.48,535.085,2245.31,0.029,0.0478,36.3573,6.45,4.90,37.1,32.9,0.820,254,208,110,1.10,1.092,0.0424,0.0424,0.946,1033,1033,15,1,115,36.4,113.5,110.7,38.1,39.2,113,38.2,111,39.3,89.1,39.7,38.2,44.3,4.09,4.09,4.60,-3.12,0.032301,0.91110593,0.199987,3.18372443
54.00,1,23.980,1,23.980,71.226,95.339,5467.126,12.048,0.9740,77.0,0.214,80.6,0.566,34.1,87.2,114,73.6,5.74,818,4.69,6.48,535.085,2242.89,0.029,0.0478,36.3573,6.45,4.92,37.1,32.9,0.819,253,207,88,0.95,0.657,0.0424,0.0424,0.947,1033,1033,15,1,115,36.4,112.2,109.4,39.2,40.1,112,39.3,109,40.3,89.2,39.7,38.2,44.3,4.09,4.09,3.90,-2.47,0.032303,0.91394924,0.200008,3.19338819
55.00,1,24.980,1,24.980,71.220,95.332,5466.169,12.048,0.9741,77.0,-0.032,80.6,0.566,34.1,76.9,114,73.6,5.74,818,4.63,6.48,535.152,2401.33,0.029,0.0479,36.3741,6.45,6.41,37.1,32.9,0.818,252,207,69,0.83,0.296,0.0424,0.0424,0.947,1033,1033,15,1,156,3.2,112.8,110.1,38.4,39.4,111,39.6,109,40.6,89.2,39.6,38.2,44.3,4.09,4.09,3.49,-2.89,0.032303,0.91679176,0.200038,3.20305150
56.00,1,25.980,1,25.980,71.219,95.335,5465.213,12.048,0.9740,77.0,-0.079,80.7,0.566,34.1,97.6,114,73.6,5.74,818,4.70,6.48,535.152,2760.26,0.029,0.0479,36.3741,6.45,7.74,37.1,32.9,0.816,249,203,105,1.10,0.934,0.0424,0.0424,0.947,1033,1033,15,1,160,0.3,118.0,115.2,34.5,35.6,116,36.3,113,37.5,89.1,39.7,38.2,44.3,4.09,4.09,3.75,-3.38,0.032305,0.91963293,0.200070,3.21271441
57.00,1,26.980,1,26.980,71.219,95.335,5464.254,12.048,0.9739,77.1,-0.059,80.6,0.566,34.1,114.3,114,73.6,5.74,817,4.76,6.47,535.152,2602.51,0.029,0.0479,36.3741,6.45,6.08,37.1,32.9,0.819,253,207,137,1.28,1.569,0.0424,0.0424,0.947,1034,1034,15,1,134,21.5,115.7,112.9,36.5,37.6,115,37.1,112,38.3,89.1,39.8,38.2,44.3,4.09,4.09,5.01,-3.79,0.032307,0.92247448,0.200081,3.22237860
58.00,1,27.980,1,27.980,71.220,95.334,5463.295,12.048,0.9740,77.1,0.005,80.6,0.566,34.1,103.0,114,73.6,5.74,817,4.82,6.47,535.152,2244.92,0.029,0.0479,36.3741,6.45,4.90,37.1,32.9,0.820,254,208,116,1.14,1.210,0.0424,0.0424,0.947,1033,1033,15,1,115,36.4,113.5,110.7,38.2,39.2,113,38.3,111,39.4,89.1,39.7,38.2,44.3,4.09,4.09,4.80,-3.26,0.032309,0.92531756,0.200090,3.23204443
59.00,1,28.980,1,28.980,71.222,95.319,5462.337,12.048,0.9741,77.0,0.191,80.6,0.566,34.1,90.1,114,73.6,5.74,817,4.71,6.48,535.152,2242.89,0.029,0.0479,36.3741,6.45,4.92,37.1,32.9,0.819,254,208,93,0.98,0.757,0.0424,0.0424,0.947,1033,1033,15,1,115,36.4,112.1,109.4,39.2,40.2,112,39.4,109,40.4,89.2,39.7,38.2,44.3,4.09,4.09,4.05,-2.56,0.032310,0.92816098,0.200111,3.24170997
60.00,1,29.980,1,29.980,71.226,95.321,5461.381,12.048,0.9741,77.0,-0.032,80.6,0.566,34.1,79.3,114,73.5,5.74,817,4.64,6.47,535.219,2410.64,0.029,0.0479,36.3892,6.45,6.45,37.1,32.9,0.819,253,207,74,0.86,0.379,0.0424,0.0424,0.947,1033,1033,15,1,157,2.7,113.0,110.3,38.3,39.3,111,39.6,109,40.6,89.2,39.7,38.2,44.3,4.09,4.09,3.61,-3.03,0.032310,0.93100374,0.200140,3.25137479
61.00,1,30.980,1,30.980,71.236,95.326,5460.425,12.048,0.9740,77.0,-0.050,80.6,0.566,34.1,86.5,114,73.6,5.74,817,4.68,6.47,535.219,2763.17,0.029,0.0479,36.3892,6.45,7.73,37.1,32.9,0.816,249,203,85,0.97,0.555,0.0424,0.0424,0.947,1033,1033,15,1,160,0.3,118.0,115.2,34.5,35.6,116,36.3,113,37.5,89.2,39.7,38.2,44.3,4.10,4.10,3.40,-3.04,0.032312,0.93384519,0.200176,3.26103915
62.00,1,31.980,1,31.980,71.242,95.327,5459.467,12.048,0.9739,77.1,0.668,80.6,0.566,34.1,113.6,114,73.6,5.74,817,4.74,6.47,535.219,2593.87,0.029,0.0479,36.3892,6.45,6.03,37.1,32.9,0.818,252,207,135,1.27,1.530,0.0424,0.0424,0.947,1034,1034,15,1,132,22.3,115.6,112.8,36.6,37.6,115,37.2,112,38.3,89.1,39.8,38.2,44.3,4.10,4.10,4.79,-3.64,0.032314,0.93668642,0.200192,3.27070429
63.00,1,32.980,1,32.980,71.249,95.325,5458.508,12.048,0.9740,77.1,-0.022,80.6,0.566,34.1,106.6,114,73.6,5.74,817,4.81,6.47,535.219,2244.59,0.029,0.0479,36.3892,6.45,4.90,37.1,32.9,0.820,254,209,123,1.18,1.332,0.0424,0.0424,0.947,1033,1033,15,1,115,36.4,113.5,110.7,38.2,39.2,113,38.3,111,39.4,89.2,39.7,38.2,44.3,4.10,4.10,4.99,-3.42,0.032316,0.93952918,0.200202,3.28037123
64.00,1,33.980,1,33.980,71.257,95.303,5457.550,12.048,0.9741,77.0,0.135,80.6,0.566,34.1,93.1,114,73.5,5.74,816,4.73,6.47,535.219,2242.89,0.029,0.0479,36.3892,6.45,4.92,37.1,32.9,0.819,254,208,99,1.02,0.861,0.0424,0.0424,0.947,1033,1033,15,1,115,36.5,112.1,109.4,39.2,40.2,112,39.4,109,40.4,89.2,39.7,38.2,44.3,4.10,4.10,4.20,-2.66,0.032316,0.94237267,0.200222,3.29003849
65.00,1,34.980,1,34.980,71.266,95.310,5456.593,12.048,0.9741,77.0,0.033,80.6,0.566,34.1,81.8,114,73.5,5.74,816,4.65,6.47,535.287,2419.97,0.029,0.0479,36.4021,6.45,6.50,37.1,32.9,0.819,253,207,78,0.89,0.466,0.0424,0.0424,0.946,1033,1033,15,1,157,2.3,113.2,110.5,38.2,39.2,112,39.5,109,40.5,89.2,39.7,38.2,44.3,4.10,4.10,3.74,-3.16,0.032317,0.94521565,0.200251,3.29970482
66.00,1,35.980,1,35.980,71.287,95.318,5455.637,12.048,0.9740,77.0,0.037,80.6,0.566,34.1,76.1,114,73.5,5.74,816,4.66,6.47,535.287,2765.85,0.029,0.0479,36.4021,6.45,7.73,37.1,32.9,0.817,251,205,67,0.83,0.238,0.0424,0.0424,0.946,1033,1033,15,1,160,0.3,118.1,115.3,34.5,35.6,116,36.3,113,37.5,89.2,39.7,38.2,44.3,4.10,4.10,3.27,-2.87,0.032319,0.94805747,0.200287,3.30937074
67.00,1,36.980,1,36.980,71.299,95.319,5454.680,12.048,0.9740,77.1,0.131,80.6,0.566,34.1,111.0,114,73.6,5.74,816,4.72,6.47,535.287,2585.08,0.029,0.0479,36.4021,6.45,5.97,37.1,32.9,0.818,252,206,130,1.25,1.426,0.0424,0.0424,0.946,1034,1034,15,1,131,23.1,115.6,112.8,36.6,37.7,115,37.2,112,38.4,89.2,39.8,38.2,44.3,4.10,4.10,4.47,-3.41,0.032321,0.95089853,0.200312,3.31903694
68.00,1,37.980,1,37.980,71.311,95.317,5453.721,12.048,0.9740,77.1,-0.026,80.6,0.566,34.1,110.4,114,73.6,5.74,816,4.79,6.47,535.287,2244.32,0.029,0.0479,36.4021,6.45,4.91,37.1,32.9,0.819,255,209,130,1.22,1.456,0.0424,0.0424,0.946,1033,1033,15,1,115,36.4,113.5,110.7,38.2,39.3,113,38.3,111,39.4,89.2,39.7,38.2,44.3,4.11,4.11,5.09,-3.54,0.032323,0.95374094,0.200323,3.32870499
69.00,1,38.980,1,38.980,71.323,95.288,5452.763,12.048,0.9741,77.0,0.077,80.5,0.566,34.1,96.3,114,73.5,5.74,816,4.75,6.47,535.287,2242.89,0.029,0.0479,36.4021,6.45,4.92,37.1,32.9,0.819,254,208,104,1.05,0.971,0.0424,0.0424,0.947,1033,1033,15,1,115,36.5,112.1,109.4,39.3,40.2,112,39.4,109,40.4,89.2,39.7,38.2,44.3,4.11,4.11,4.38,-2.77,0.032323,0.95658444,0.200341,3.33837398
70.00,1,39.980,1,39.980,71.337,95.299,5451.806,12.048,0.9741,77.0,0.148,80.5,0.566,34.1,84.5,114,73.5,5.75,815,4.66,6.47,535.354,2429.30,0.029,0.0479,36.4130,6.45,6.55,37.1,32.9,0.819,254,208,83,0.92,0.557,0.0424,0.0424,0.946,1033,1033,15,1,157,2.0,113.3,110.6,38.1,39.1,112,39.5,109,40.5,89.3,39.7,38.2,44.3,4.11,4.11,3.88,-3.30,0.032324,0.95942762,0.200369,3.34804196
71.00,1,40.980,1,40.980,71.366,95.311,5450.850,12.048,0.9740,77.0,0.021,80.5,0.566,34.1,74.6,114,73.6,5.75,815,4.64,6.47,535.354,2768.28,0.029,0.0479,36.4130,6.45,7.72,37.1,32.9,0.818,253,207,65,0.80,0.215,0.0424,0.0424,0.946,1033,1033,15,1,160,0.3,118.1,115.3,34.5,35.6,116,36.3,113,37.5,89.2,39.7,38.2,44.3,4.11,4.11,3.35,-2.88,0.032326,0.96226984,0.200405,3.35770960
72.00,1,41.980,1,41.980,71.381,95.311,5449.894,12.048,0.9740,77.0,-0.090,80.5,0.566,34.1,105.9,114,73.6,5.75,815,4.70,6.47,535.354,2576.15,0.029,0.0479,36.4130,6.45,5.92,37.1,32.9,0.817,251,205,121,1.19,1.230,0.0424,0.0424,0.946,1034,1034,15,1,131,23.9,115.5,112.8,36.7,37.8,115,37.2,112,38.4,89.2,39.8,38.2,44.3,4.11,4.11,4.08,-3.11,0.032328,0.96511091,0.200438,3.36737715
73.00,1,42.980,1,42.980,71.397,95.309,5448.935,12.048,0.9740,77.1,-0.035,80.5,0.566,34.1,113.5,114,73.6,5.75,815,4.77,6.47,535.354,2244.09,0.029,0.0479,36.4130,6.45,4.91,37.1,32.9,0.819,254,208,136,1.27,1.547,0.0424,0.0424,0.946,1033,1033,15,1,115,36.5,113.5,110.7,38.2,39.3,113,38.3,111,39.4,89.2,39.7,38.2,44.3,4.11,4.11,5.07,-3.56,0.032330,0.96795296,0.200451,3.37704642
74.00,1,43.980,1,43.980,71.413,95.286,5447.976,12.048,0.9741,77.1,0.035,80.4,0.566,34.1,99.5,114,73.5,5.74,815,4.78,6.46,535.354,2242.89,0.029,0.0479,36.4130,6.45,4.92,37.1,32.9,0.819,255,209,111,1.09,1.085,0.0424,0.0424,0.946,1033,1033,15,1,115,36.5,112.1,109.4,39.3,40.3,112,39.5,109,40.5,89.3,39.7,38.2,44.3,4.11,4.11,4.57,-2.90,0.032330,0.97079642,0.200468,3.38671714
75.00,1,44.980,1,44.980,71.429,95.292,5447.019,12.048,0.9741,77.0,0.205,80.5,0.566,34.1,87.2,114,73.5,5.75,815,4.67,6.46,535.422,2438.63,0.029,0.0479,36.4222,6.45,6.60,37.1,32.9,0.819,254,208,88,0.95,0.653,0.0424,0.0424,0.946,1033,1033,15,1,158,1.7,113.5,110.8,38.0,39.0,112,39.4,109,40.4,89.3,39.7,38.2,44.3,4.11,4.11,4.02,-3.45,0.032331,0.97363982,0.200496,3.39638711
76.00,1,45.980,1,45.980,71.465,95.299,5446.063,12.048,0.9740,77.0,-0.032,80.5,0.566,34.1,76.9,114,73.6,5.75,815,4.61,6.46,535.422,2770.47,0.029,0.0479,36.4222,6.45,7.72,37.1,32.9,0.818,253,207,69,0.83,0.293,0.0424,0.0424,0.945,1033,1033,15,1,160,0.3,118.1,115.3,34.5,35.6,116,36.3,113,37.5,89.3,39.7,38.2,44.3,4.12,4.12,3.47,-2.94,0.032332,0.97648241,0.200531,3.40605671
77.00,1,46.980,1,46.980,71.483,95.300,5445.107,12.048,0.9740,77.0,-0.073,80.4,0.566,34.1,97.5,114,73.6,5.75,814,4.68,6.46,535.422,2567.08,0.029,0.0479,36.4222,6.45,5.86,37.1,32.9,0.816,250,204,105,1.10,0.927,0.0424,0.0424,0.945,1034,1034,15,1,130,24.7,115.5,112.7,36.7,37.8,115,37.2,112,38.4,89.2,39.8,38.2,44.3,4.12,4.12,3.67,-2.77,0.032335,0.97932370,0.200569,3.41572603
78.00,1,47.980,1,47.980,71.501,95.298,5444.149,12.048,0.9740,77.1,-0.041,80.4,0.566,34.1,114.2,114,73.6,5.75,814,4.75,6.46,535.422,2243.90,0.029,0.0479,36.4222,6.45,4.91,37.1,32.9,0.818,254,208,137,1.28,1.559,0.0424,0.0424,0.945,1033,1033,15,1,115,36.5,113.5,110.7,38.2,39.3,113,38.4,111,39.4,89.2,39.8,38.2,44.3,4.12,4.12,4.94,-3.50,0.032337,0.98216544,0.200587,3.42539676
79.00,1,48.980,1,48.980,71.519,95.281,5443.190,12.048,0.9741,77.1,0.021,80.4,0.566,34.1,103.0,114,73.6,5.75,814,4.80,6.46,535.422,2242.89,0.029,0.0479,36.4222,6.45,4.92,37.1,32.9,0.819,255,209,117,1.13,1.204,0.0424,0.0424,0.945,1033,1033,15,1,115,36.5,112.1,109.4,39.3,40.3,112,39.5,109,40.5,89.3,39.7,38.2,44.3,4.12,4.12,4.77,-3.04,0.032337,0.98500871,0.200603,3.43506924
80.00,1,49.980,1,49.980,71.539,95.283,5442.233,12.048,0.9741,77.0,0.205,80.4,0.566,34.1,90.1,114,73.5,5.75,814,4.69,6.46,535.489,2447.96,0.029,0.0479,36.4299,6.45,6.64,37.1,32.9,0.819,255,208,94,0.98,0.752,0.0424,0.0424,0.945,1033,1033,15,1,158,1.5,113.7,111.0,37.9,38.9,112,39.4,109,40.4,89.3,39.7,38.2,44.3,4.12,4.12,4.18,-3.59,0.032338,0.98785233,0.200629,3.44474156
81.00,1,50.980,1,50.980,71.558,95.284,5441.277,12.048,0.9740,77.0,-0.039,80.4,0.566,34.1,79.3,114,73.5,5.75,814,4.62,6.46,535.489,2772.41,0.029,0.0479,36.4299,6.45,7.71,37.1,32.9,0.818,254,208,74,0.85,0.376,0.0424,0.0424,0.945,1033,1033,15,1,160,0.3,118.1,115.3,34.5,35.6,116,36.3,113,37.6,89.3,39.8,38.2,44.3,4.12,4.12,3.58,-3.00,0.032339,0.99069527,0.200664,3.45441332
82.00,1,51.980,1,51.980,71.599,95.290,5440.321,12.048,0.9740,77.0,-0.048,80.4,0.566,34.1,86.4,114,73.6,5.75,814,4.66,6.46,535.489,2557.87,0.029,0.0479,36.4299,6.45,5.81,37.1,32.9,0.816,250,204,85,0.97,0.549,0.0424,0.0424,0.945,1034,1034,15,1,129,25.4,115.5,112.7,36.8,37.9,115,37.3,112,38.4,89.2,39.8,38.2,44.3,4.12,4.12,3.33,-2.47,0.032342,0.99353693,0.200705,3.46408478
83.00,1,52.980,1,52.980,71.619,95.288,5439.364,12.048,0.9740,77.1,0.017,80.3,0.566,34.1,113.4,114,73.6,5.75,814,4.72,6.46,535.489,2243.73,0.029,0.0479,36.4299,6.45,4.91,37.1,32.9,0.818,253,207,135,1.27,1.520,0.0424,0.0424,0.945,1033,1033,15,1,115,36.5,113.5,110.7,38.3,39.3,113,38.4,111,39.5,89.3,39.8,38.2,44.3,4.13,4.13,4.73,-3.36,0.032344,0.99637842,0.200728,3.47375720
84.00,1,53.980,1,53.980,71.640,95.274,5438.405,12.048,0.9741,77.1,-0.010,80.3,0.566,34.1,106.6,114,73.6,5.75,813,4.79,6.46,535.489,2242.89,0.029,0.0479,36.4299,6.45,4.92,37.1,32.9,0.819,255,209,124,1.17,1.325,0.0424,0.0424,0.945,1033,1033,15,1,115,36.5,112.1,109.4,39.3,40.3,112,39.5,109,40.5,89.3,39.7,38.2,44.3,4.13,4.13,4.95,-3.19,0.032344,0.99922146,0.200744,3.48343156
85.00,1,54.980,1,54.980,71.661,95.274,5437.447,12.048,0.9741,77.0,0.161,80.3,0.566,34.1,93.1,114,73.5,5.76,813,4.71,6.45,535.556,2457.27,0.029,0.0479,36.4366,6.45,6.69,37.1,32.9,0.819,255,209,99,1.02,0.857,0.0424,0.0424,0.944,1033,1033,15,1,158,1.3,113.8,111.1,37.8,38.8,112,39.3,109,40.3,89.3,39.7,38.2,44.3,4.13,4.13,4.34,-3.74,0.032345,1.00206525,0.200769,3.49310642
86.00,1,55.980,1,55.980,71.682,95.275,5436.491,12.048,0.9740,77.0,-0.006,80.3,0.566,34.1,81.8,114,73.6,5.76,813,4.63,6.45,535.556,2774.10,0.029,0.0479,36.4366,6.45,7.70,37.1,32.9,0.819,254,208,79,0.88,0.463,0.0424,0.0424,0.944,1033,1033,15,1,160,0.3,118.1,115.4,34.5,35.6,116,36.4,113,37.6,89.3,39.8,38.2,44.3,4.13,4.13,3.71,-3.07,0.032346,1.00490850,0.200803,3.50278054
87.00,1,56.980,1,56.980,71.726,95.281,5435.536,12.048,0.9740,77.0,0.041,80.3,0.565,34.1,76.1,114,73.6,5.76,813,4.64,6.45,535.556,2548.54,0.029,0.0479,36.4366,6.45,5.75,37.1,32.9,0.817,252,206,67,0.83,0.234,0.0424,0.0424,0.944,1034,1034,15,1,128,26.1,115.4,112.6,36.9,37.9,115,37.3,112,38.5,89.2,39.8,38.2,44.3,4.13,4.13,3.21,-2.33,0.032350,1.00775062,0.200845,3.51245445
88.00,1,57.980,1,57.980,71.748,95.280,5434.578,12.048,0.9740,77.1,0.214,80.3,0.565,34.1,110.9,114,73.6,5.76,813,4.70,6.45,535.556,2243.60,0.029,0.0479,36.4366,6.45,4.91,37.1,32.9,0.817,252,206,131,1.24,1.416,0.0424,0.0424,0.944,1033,1033,15,1,115,36.5,113.5,110.7,38.3,39.3,113,38.4,111,39.5,89.3,39.8,38.2,44.3,4.13,4.13,4.42,-3.15,0.032352,1.01059203,0.200875,3.52212885
89.00,1,58.980,1,58.980,71.770,95.267,5433.620,12.048,0.9741,77.1,-0.024,80.2,0.565,34.1,110.3,114,73.6,5.76,813,4.77,6.45,535.556,2242.89,0.029,0.0479,36.4366,6.45,4.92,37.1,32.9,0.819,255,209,131,1.22,1.448,0.0424,0.0424,0.944,1033,1033,15,1,115,36.5,112.1,109.4,39.4,40.3,112,39.5,109,40.5,89.3,39.7,38.2,44.3,4.13,4.13,5.05,-3.31,0.032352,1.01343481,0.200892,3.53180525
90.00,1,59.980,1,59.980,71.793,95.266,5432.662,12.048,0.9741,77.0,0.098,80.2,0.565,34.1,96.2,114,73.6,5.76,812,4.73,6.45,535.623,2466.55,0.029,0.0480,36.4425,6.45,6.73,37.1,32.9,0.819,255,209,105,1.05,0.966,0.0424,0.0424,0.943,1033,1033,15,1,159,1.1,114.0,111.3,37.7,38.7,112,39.2,109,40.2,89.3,39.7,38.2,44.3,4.14,4.14,4.53,-3.91,0.032352,1.01627871,0.200916,3.54148279
91.00,1,60.980,1,60.980,71.815,95.267,5431.705,12.048,0.9740,77.0,0.098,80.2,0.565,34.1,84.5,114,73.6,5.76,812,4.64,6.45,535.623,2775.54,0.029,0.0480,36.4425,6.45,7.69,37.1,32.9,0.819,255,208,84,0.91,0.554,0.0424,0.0424,0.943,1033,1033,15,1,160,0.3,118.2,115.4,34.5,35.7,116,36.4,113,37.6,89.3,39.8,38.2,44.3,4.14,4.14,3.83,-3.14,0.032354,1.01912226,0.200949,3.55115954
92.00,1,61.980,1,61.980,71.861,95.273,5430.750,12.048,0.9740,77.0,0.017,80.2,0.565,34.1,74.6,114,73.6,5.76,812,4.62,6.45,535.623,2539.10,0.029,0.0480,36.4425,6.45,5.69,37.1,32.9,0.818,254,208,66,0.80,0.213,0.0424,0.0424,0.943,1034,1034,15,1,127,26.8,115.4,112.6,36.9,38.0,115,37.4,112,38.5,89.2,39.8,38.2,44.3,4.14,4.14,3.30,-2.37,0.032357,1.02196487,0.200990,3.56083616
93.00,1,62.980,1,62.980,71.885,95.272,5429.794,12.048,0.9740,77.0,-0.090,80.2,0.565,34.1,105.8,114,73.6,5.76,812,4.68,6.45,535.623,2243.48,0.029,0.0480,36.4425,6.45,4.91,37.1,32.9,0.816,251,205,121,1.19,1.221,0.0424,0.0424,0.943,1033,1033,15,1,115,36.5,113.5,110.7,38.3,39.4,113,38.4,111,39.5,89.3,39.8,38.2,44.3,4.14,4.14,4.03,-2.87,0.032359,1.02480639,0.201027,3.57051291
94.00,1,63.980,1,63.980,71.908,95.260,5428.835,12.048,0.9741,77.1,-0.029,80.2,0.565,34.1,113.5,114,73.6,5.76,812,4.75,6.45,535.623,2242.89,0.029,0.0480,36.4425,6.45,4.92,37.1,32.9,0.819,255,208,136,1.26,1.539,0.0424,0.0424,0.943,1033,1033,15,1,115,36.5,112.1,109.4,39.4,40.4,112,39.6,109,40.6,89.3,39.7,38.2,44.3,4.14,4.14,5.02,-3.32,0.032359,1.02764890,0.201046,3.58019153
95.00,1,64.980,1,64.980,71.931,95.259,5427.877,12.048,0.9741,77.1,0.043,80.1,0.565,34.1,99.5,114,73.6,5.77,812,4.76,6.44,535.688,2475.81,0.029,0.0480,36.4482,6.45,6.78,37.1,32.9,0.819,255,209,111,1.09,1.079,0.0424,0.0424,0.943,1033,1033,15,1,159,1.0,114.2,111.5,37.6,38.6,112,39.1,109,40.2,89.3,39.7,38.1,44.3,4.14,4.14,4.73,-4.08,0.032359,1.03049282,0.201068,3.58987181
96.00,1,65.980,1,65.980,71.954,95.262,5426.920,12.048,0.9740,77.0,0.205,80.1,0.565,34.1,87.2,114,73.6,5.77,812,4.65,6.44,535.688,2776.72,0.029,0.0480,36.4482,6.45,7.67,37.1,32.9,0.819,255,209,89,0.95,0.649,0.0424,0.0424,0.942,1033,1033,15,1,160,0.3,118.2,115.4,34.5,35.7,116,36.4,113,37.6,89.3,39.8,38.1,44.3,4.14,4.14,3.97,-3.21,0.032361,1.03333668,0.201100,3.59955153
97.00,1,66.980,1,66.980,72.002,95.264,5425.964,12.048,0.9740,77.0,-0.032,80.1,0.565,34.1,76.9,114,73.6,5.77,811,4.59,6.44,535.688,2529.54,0.029,0.0480,36.4482,6.45,5.64,37.1,32.9,0.818,254,208,70,0.82,0.291,0.0424,0.0424,0.942,1034,1034,15,1,126,27.5,115.3,112.5,37.0,38.1,115,37.4,112,38.6,89.2,39.9,38.1,44.3,4.14,4.14,3.41,-2.46,0.032364,1.03617976,0.201140,3.60923110
98.00,1,67.980,1,67.980,72.025,95.262,5425.009,12.048,0.9740,77.0,-0.073,80.1,0.565,34.1,97.4,114,73.6,5.77,811,4.66,6.44,535.688,2243.39,0.029,0.0480,36.4482,6.45,4.91,37.1,32.9,0.816,251,204,105,1.10,0.919,0.0424,0.0424,0.942,1033,1033,15,1,115,36.5,113.5,110.7,38.3,39.4,113,38.5,111,39.5,89.3,39.8,38.1,44.3,4.15,4.15,3.63,-2.55,0.032367,1.03902159,0.201182,3.61891061
99.00,1,68.980,1,68.980,72.049,95.253,5424.051,12.048,0.9741,77.1,-0.041,80.1,0.565,34.1,114.1,114,73.6,5.77,811,4.73,6.44,535.688,2242.89,0.029,0.0480,36.4482,6.45,4.92,37.1,32.9,0.818,254,208,137,1.27,1.550,0.0424,0.0424,0.942,1033,1033,15,1,115,36.5,112.1,109.4,39.4,40.4,112,39.6,109,40.6,89.3,39.7,38.1,44.3,4.15,4.15,4.89,-3.27,0.032367,1.04186388,0.201204,3.62859168
100.00,1,69.980,1,69.980,72.073,95.250,5423.092,12.048,0.9741,77.1,0.021,80.1,0.565,34.1,102.9,114,73.6,5.77,811,4.78,6.44,535.752,2485.04,0.029,0.0480,36.4542,6.45,6.82,37.1,32.9,0.819,256,209,117,1.13,1.197,0.0424,0.0424,0.942,1033,1033,15,1,159,0.9,114.3,111.6,37.5,38.5,112,39.1,110,40.1,89.3,39.8,38.1,44.3,4.15,4.15,4.93,-4.26,0.032367,1.04470771,0.201225,3.63827471
101.00,1,70.980,1,70.980,72.097,95.254,5422.135,12.048,0.9740,77.0,0.205,80.1,0.565,34.1,90.1,114,73.6,5.77,811,4.67,6.44,535.752,2777.65,0.029,0.0480,36.4542,6.45,7.66,37.1,32.9,0.819,255,209,94,0.98,0.748,0.0424,0.0424,0.942,1033,1033,15,1,160,0.3,118.2,115.4,34.6,35.7,116,36.4,113,37.6,89.3,39.8,38.1,44.3,4.15,4.15,4.11,-3.29,0.032369,1.04755187,0.201255,3.64795778
102.00,1,71.980,1,71.980,72.121,95.255,5421.180,12.048,0.9739,77.0,-0.039,80.0,0.565,34.1,79.4,114,73.6,5.77,811,4.60,6.44,535.752,2519.87,0.029,0.0480,36.4542,6.45,5.58,37.1,32.9,0.818,254,208,74,0.85,0.374,0.0424,0.0424,0.941,1034,1034,15,1,126,28.1,115.3,112.5,37.1,38.1,115,37.4,112,38.6,89.2,39.9,38.1,44.3,4.15,4.15,3.53,-2.54,0.032372,1.05039539,0.201294,3.65764048
103.00,1,72.980,1,72.980,72.169,95.254,5420.224,12.048,0.9740,77.0,-0.048,80.0,0.565,34.1,86.4,114,73.6,5.77,811,4.64,6.44,535.752,2243.31,0.029,0.0480,36.4542,6.45,4.92,37.1,32.9,0.816,251,204,85,0.96,0.543,0.0424,0.0424,0.941,1033,1033,15,1,115,36.5,113.5,110.7,38.4,39.4,113,38.5,111,39.6,89.3,39.8,38.1,44.3,4.15,4.15,3.31,-2.28,0.032375,1.05323768,0.201339,3.66732310
104.00,1,73.980,1,73.980,72.193,95.246,5419.267,12.048,0.9741,77.1,0.017,80.0,0.565,34.1,113.3,114,73.6,5.77,810,4.70,6.44,535.752,2242.89,0.029,0.0480,36.4542,6.45,4.92,37.1,32.9,0.818,254,207,136,1.27,1.511,0.0424,0.0424,0.941,1033,1033,15,1,115,36.5,112.1,109.4,39.4,40.4,112,39.6,109,40.6,89.3,39.8,38.1,44.3,4.15,4.15,4.68,-3.14,0.032375,1.05607983,0.201367,3.67700683
105.00,1,74.980,1,74.980,72.217,95.243,5418.308,12.048,0.9741,77.1,-0.010,80.0,0.565,34.1,106.5,114,73.6,5.78,810,4.77,6.43,535.815,2494.22,0.029,0.0480,36.4612,6.46,6.86,37.1,32.9,0.819,256,209,124,1.17,1.318,0.0424,0.0424,0.941,1033,1033,15,1,159,0.8,114.5,111.8,37.3,38.4,112,39.0,110,40.0,89.3,39.8,38.1,44.3,4.16,4.16,5.12,-4.45,0.032375,1.05892351,0.201387,3.68669270
106.00,1,75.980,1,75.980,72.242,95.246,5417.351,12.048,0.9740,77.0,0.161,80.0,0.565,34.1,93.1,114,73.6,5.78,810,4.69,6.43,535.815,2778.32,0.029,0.0480,36.4612,6.46,7.64,37.1,32.9,0.819,255,209,100,1.01,0.852,0.0424,0.0424,0.941,1033,1033,15,1,160,0.3,118.2,115.4,34.6,35.7,116,36.4,113,37.7,89.3,39.8,38.1,44.3,4.16,4.16,4.27,-3.37,0.032376,1.06176793,0.201416,3.69637926
107.00,1,76.980,1,76.980,72.266,95.247,5416.395,12.048,0.9739,77.0,-0.006,80.0,0.565,34.1,81.9,114,73.6,5.78,810,4.61,6.43,535.815,2510.10,0.029,0.0480,36.4612,6.46,5.53,37.1,32.9,0.818,255,208,79,0.88,0.460,0.0424,0.0424,0.940,1034,1034,15,1,125,28.7,115.2,112.4,37.1,38.2,115,37.5,112,38.6,89.2,39.9,38.1,44.3,4.16,4.16,3.66,-2.63,0.032380,1.06461184,0.201454,3.70606528
108.00,1,77.980,1,77.980,72.315,95.666,5415.440,12.048,0.9740,77.0,-0.017,79.6,0.562,34.1,81.9,114,73.8,5.75,810,4.62,6.42,535.815,2243.24,0.029,0.0480,36.4612,6.46,4.92,37.1,32.8,0.816,251,205,77,0.91,0.405,0.0424,0.0424,0.949,1033,1033,15,1,115,36.5,113.5,110.7,38.4,39.5,113,38.5,110,39.6,89.3,39.8,38.1,44.3,4.16,4.16,3.26,-2.21,0.032382,1.06745486,0.201499,3.71575136
109.00,1,78.980,1,78.980,72.327,96.000,5414.482,12.048,0.9741,77.1,0.017,79.1,0.560,34.1,114.1,115,74.5,5.72,810,4.70,6.41,535.815,2242.89,0.029,0.0480,36.4612,6.46,4.92,37.1,32.8,0.818,254,208,137,1.27,1.542,0.0424,0.0424,0.958,1033,1033,15,1,115,36.5,112.1,109.4,39.5,40.4,112,39.7,109,40.6,89.3,39.8,38.1,44.3,4.16,4.16,4.71,-3.16,0.032383,1.07029914,0.201524,3.72543997
110.00,1,79.980,1,79.980,72.318,95.980,5413.523,12.048,0.9741,77.1,0.004,78.9,0.560,34.1,104.3,115,74.6,5.71,809,4.77,6.40,535.878,2503.35,0.029,0.0480,36.4707,6.46,6.90,37.1,32.8,0.819,256,210,119,1.15,1.245,0.0424,0.0424,0.960,1033,1033,15,1,159,0.7,114.6,111.9,37.3,38.3,113,38.9,110,40.0,89.3,39.8,38.1,44.3,4.16,4.16,5.00,-4.38,0.032383,1.07314670,0.201541,3.73513376
111.00,1,80.980,1,80.980,72.291,95.827,5412.566,12.048,0.9740,77.0,0.205,78.9,0.560,34.1,89.5,115,74.5,5.70,809,4.65,6.40,535.878,2778.74,0.029,0.0480,36.4707,6.46,7.63,37.1,32.8,0.819,255,209,92,0.98,0.727,0.0424,0.0424,0.959,1033,1033,15,1,160,0.3,118.1,115.4,34.6,35.8,116,36.5,113,37.7,89.3,39.9,38.1,44.4,4.16,4.16,4.08,-3.19,0.032385,1.07599540,0.201569,3.74483133
112.00,1,81.980,1,81.980,72.251,95.636,5411.611,12.048,0.9739,77.0,-0.036,78.8,0.560,34.1,77.7,114,74.4,5.70,809,4.59,6.39,535.878,2500.25,0.029,0.0480,36.4707,6.46,5.47,37.1,32.8,0.818,254,208,71,0.84,0.316,0.0424,0.0424,0.958,1034,1034,15,1,124,29.3,115.2,112.4,37.2,38.3,115,37.5,112,38.7,89.2,39.9,38.1,44.4,4.16,4.16,3.47,-2.49,0.032388,1.07884294,0.201607,3.75453215
113.00,1,82.980,1,82.980,72.171,94.549,5410.657,12.048,0.9739,77.0,-0.067,79.6,0.565,34.1,91.4,113,73.1,5.74,809,4.64,6.40,535.878,2243.18,0.029,0.0480,36.4707,6.46,4.92,37.1,32.8,0.816,251,204,94,1.03,0.703,0.0424,0.0424,0.939,1033,1033,15,1,115,36.5,113.4,110.6,38.5,39.5,113,38.6,110,39.7,89.3,39.8,38.1,44.4,4.17,4.17,3.45,-2.40,0.032391,1.08168704,0.201653,3.76423487
114.00,1,83.980,1,83.980,72.162,94.466,5409.701,12.048,0.9740,77.1,-0.088,79.6,0.565,34.1,113.1,113,72.9,5.75,809,4.71,6.40,535.878,2242.89,0.029,0.0480,36.4707,6.46,4.92,37.1,32.8,0.818,254,208,136,1.26,1.500,0.0424,0.0424,0.937,1033,1033,15,1,115,36.5,112.1,109.3,39.5,40.5,112,39.7,109,40.7,89.3,39.8,38.1,44.4,4.17,4.17,4.80,-3.21,0.032391,1.08452908,0.201679,3.77393890
115.00,1,84.980,1,84.980,72.179,94.565,5408.743,12.048,0.9740,77.1,0.004,79.7,0.565,34.1,104.2,113,73.0,5.75,809,4.78,6.40,535.939,2512.43,0.029,0.0480,36.4963,6.46,6.95,37.1,32.8,0.819,256,210,120,1.14,1.230,0.0424,0.0424,0.938,1033,1033,15,1,159,0.6,114.8,112.1,37.2,38.2,113,38.9,110,39.9,89.3,39.8,38.1,44.4,4.17,4.17,5.05,-4.44,0.032391,1.08737131,0.201702,3.78364298
116.00,1,85.980,1,85.980,72.216,94.736,5407.786,12.048,0.9739,77.0,0.189,79.6,0.565,34.1,91.3,113,73.1,5.75,809,4.67,6.40,535.939,2778.89,0.029,0.0480,36.4963,6.46,7.61,37.1,32.8,0.819,256,209,97,0.99,0.785,0.0424,0.0424,0.940,1033,1033,15,1,160,0.3,118.1,115.4,34.6,35.8,116,36.5,113,37.7,89.2,39.9,38.1,44.4,4.17,4.17,4.18,-3.23,0.032393,1.09021356,0.201735,3.79334422
117.00,1,86.980,1,86.980,72.267,94.913,5406.830,12.048,0.9739,77.0,-0.028,79.6,0.564,34.1,80.5,114,73.3,5.75,808,4.59,6.41,535.939,2490.30,0.029,0.0480,36.4963,6.46,5.41,37.1,32.8,0.818,255,209,77,0.86,0.412,0.0425,0.0425,0.941,1034,1034,15,1,123,29.8,115.1,112.3,37.2,38.3,115,37.5,112,38.7,89.2,39.9,38.1,44.4,4.17,4.17,3.60,-2.58,0.032396,1.09305528,0.201776,3.80304146
118.00,1,87.980,1,87.980,72.388,95.598,5405.875,12.048,0.9739,77.0,-0.048,79.2,0.561,34.1,87.5,114,73.8,5.73,808,4.62,6.40,535.939,2243.14,0.029,0.0480,36.4963,6.46,4.92,37.1,32.8,0.816,251,205,88,0.97,0.582,0.0425,0.0425,0.951,1033,1033,15,1,115,36.6,113.4,110.6,38.5,39.6,113,38.6,110,39.7,89.2,39.9,38.1,44.4,4.17,4.17,3.35,-2.30,0.032399,1.09589639,0.201823,3.81273553
119.00,1,88.980,1,88.980,72.436,96.011,5404.917,12.048,0.9740,77.1,-0.088,78.8,0.559,34.1,114.6,115,74.6,5.71,808,4.70,6.39,535.939,2242.89,0.029,0.0480,36.4963,6.46,4.92,37.1,32.8,0.818,254,208,138,1.27,1.563,0.0425,0.0425,0.961,1033,1033,15,1,115,36.6,112.0,109.3,39.5,40.5,112,39.7,109,40.7,89.3,39.8,38.1,44.4,4.17,4.17,4.83,-3.22,0.032399,1.09873959,0.201848,3.82242988
120.00,1,89.980,1,89.980,72.460,96.041,5403.958,12.048,0.9740,77.1,0.021,78.6,0.559,34.1,102.6,115,74.7,5.70,808,4.75,6.39,535.996,2521.44,0.029,0.0480,36.5046,6.46,6.99,37.1,32.8,0.819,256,210,117,1.12,1.186,0.0425,0.0425,0.962,1033,1033,15,1,159,0.6,114.9,112.2,37.1,38.1,113,38.8,110,39.9,89.3,39.8,38.1,44.4,4.18,4.18,4.91,-4.36,0.032400,1.10158657,0.201868,3.83212757
121.00,1,90.980,1,90.980,72.461,95.913,5403.001,12.048,0.9739,77.0,0.212,78.6,0.559,34.1,88.2,115,74.7,5.70,808,4.63,6.38,535.996,2778.78,0.029,0.0480,36.5046,6.46,7.59,37.1,32.8,0.819,255,209,90,0.96,0.680,0.0425,0.0425,0.961,1033,1033,15,1,160,0.3,118.1,115.3,34.7,35.8,116,36.6,113,37.8,89.2,39.9,38.1,44.4,4.18,4.18,3.99,-3.06,0.032402,1.10443486,0.201900,3.84182774
122.00,1,91.980,1,91.980,72.418,95.544,5402.046,12.048,0.9738,77.0,0.002,78.6,0.559,34.1,76.4,114,74.3,5.69,808,4.58,6.37,535.996,2480.28,0.029,0.0480,36.5046,6.46,5.36,37.1,32.8,0.818,255,208,69,0.82,0.267,0.0425,0.0425,0.958,1034,1034,15,1,123,30.3,115.1,112.3,37.3,38.4,115,37.6,112,38.7,89.2,39.9,38.1,44.4,4.18,4.18,3.39,-2.42,0.032406,1.10728236,0.201942,3.85153094
123.00,1,92.980,1,92.980,72.386,95.387,5401.091,12.048,0.9739,77.0,-0.090,78.5,0.559,34.1,106.0,114,74.2,5.69,808,4.65,6.37,535.996,2243.10,0.029,0.0480,36.5046,6.46,4.92,37.1,32.8,0.816,252,206,121,1.19,1.222,0.0425,0.0425,0.958,1033,1033,15,1,115,36.6,113.4,110.6,38.5,39.6,113,38.7,110,39.7,89.2,39.9,38.1,44.4,4.18,4.18,4.07,-2.88,0.032408,1.11012818,0.201981,3.86123765
124.00,1,93.980,1,93.980,72.354,95.263,5400.133,12.048,0.9740,77.1,-0.034,78.5,0.559,34.1,111.0,114,74.1,5.68,807,4.73,6.37,535.996,2242.89,0.029,0.0480,36.5046,6.46,4.92,37.1,32.8,0.819,256,209,132,1.23,1.459,0.0425,0.0425,0.957,1033,1033,15,1,115,36.6,112.0,109.2,39.6,40.6,112,39.8,109,40.8,89.3,39.8,38.1,44.4,4.18,4.18,5.06,-3.31,0.032408,1.11297466,0.202000,3.87094951
125.00,1,94.980,1,94.980,72.325,95.183,5399.176,12.048,0.9740,77.0,0.098,78.5,0.560,34.1,95.2,114,74.0,5.67,807,4.69,6.36,536.051,2530.39,0.029,0.0481,36.5316,6.46,7.03,37.1,32.8,0.819,256,209,103,1.04,0.918,0.0425,0.0425,0.957,1033,1033,15,1,159,0.5,115.0,112.3,37.0,38.0,113,38.7,110,39.8,89.3,39.8,38.1,44.4,4.18,4.18,4.52,-4.11,0.032409,1.11582202,0.202026,3.88066495
126.00,1,95.980,1,95.980,72.303,95.142,5398.221,12.048,0.9739,77.0,0.044,78.4,0.560,34.1,82.2,114,73.9,5.67,807,4.59,6.36,536.051,2778.40,0.029,0.0481,36.5316,6.46,7.57,37.1,32.8,0.818,255,209,80,0.89,0.467,0.0425,0.0425,0.958,1033,1033,15,1,160,0.3,118.1,115.3,34.7,35.9,116,36.6,113,37.8,89.2,39.9,38.1,44.4,4.18,4.18,3.72,-2.84,0.032411,1.11866840,0.202063,3.89038076
127.00,1,96.980,1,96.980,72.278,94.712,5397.267,12.048,0.9738,77.0,0.041,78.7,0.562,34.1,75.4,113,73.8,5.69,807,4.60,6.36,536.051,2470.19,0.029,0.0481,36.5316,6.46,5.30,37.1,32.8,0.817,253,206,66,0.82,0.204,0.0425,0.0425,0.950,1034,1034,15,1,122,30.8,115.0,112.2,37.3,38.4,115,37.6,112,38.8,89.2,40.0,38.1,44.4,4.18,4.18,3.21,-2.31,0.032415,1.12151285,0.202110,3.90009675
128.00,1,97.980,1,97.980,72.288,94.380,5396.311,12.048,0.9739,77.0,0.214,79.1,0.564,34.1,109.8,113,73.0,5.72,807,4.67,6.37,536.051,2243.06,0.029,0.0481,36.5316,6.46,4.92,37.1,32.8,0.817,253,207,130,1.23,1.361,0.0425,0.0425,0.942,1033,1033,15,1,115,36.6,113.3,110.6,38.6,39.6,113,38.7,110,39.8,89.2,39.9,38.1,44.4,4.19,4.19,4.42,-3.13,0.032417,1.12435456,0.202147,3.90981177
129.00,1,98.980,1,98.980,72.323,94.412,5395.354,12.048,0.9740,77.1,-0.024,79.2,0.564,34.1,109.0,113,72.9,5.73,807,4.74,6.38,536.051,2242.89,0.029,0.0481,36.5316,6.46,4.92,37.1,32.8,0.819,256,210,129,1.20,1.387,0.0425,0.0425,0.940,1033,1033,15,1,115,36.6,111.9,109.2,39.6,40.6,112,39.8,109,40.8,89.3,39.8,38.0,44.4,4.19,4.19,5.05,-3.28,0.032417,1.12719610,0.202171,3.91952592
130.00,1,99.980,1,99.980,72.382,95.001,5394.397,12.048,0.9739,77.0,0.127,78.8,0.561,34.1,94.1,114,73.3,5.71,806,4.67,6.37,536.101,2539.26,0.029,0.0481,36.5512,6.46,7.06,37.1,32.8,0.819,256,210,102,1.02,0.881,0.0425,0.0425,0.950,1033,1033,15,1,159,0.5,115.2,112.4,36.9,38.0,113,38.7,110,39.7,89.3,39.9,38.0,44.4,4.19,4.19,4.43,-4.07,0.032417,1.13003907,0.202201,3.92923772
131.00,1,100.980,1,100.980,72.444,95.551,5393.440,12.048,0.9738,77.0,-0.006,78.4,0.559,34.1,81.6,114,74.1,5.68,806,4.58,6.36,536.101,2777.76,0.029,0.0481,36.5512,6.46,7.54,37.1,32.8,0.818,255,209,79,0.88,0.448,0.0425,0.0425,0.960,1033,1033,15,1,160,0.4,118.0,115.3,34.8,35.9,116,36.6,113,37.8,89.2,39.9,38.0,44.4,4.19,4.19,3.65,-2.78,0.032420,1.13288325,0.202240,3.93894629
132.00,1,101.980,1,101.980,72.529,95.729,5392.485,12.048,0.9738,77.0,-0.048,78.2,0.558,34.1,87.3,114,74.5,5.67,806,4.61,6.36,536.101,2460.05,0.029,0.0481,36.5512,6.46,5.25,37.1,32.8,0.816,251,205,87,0.97,0.571,0.0425,0.0425,0.963,1034,1034,15,1,122,31.3,115.0,112.2,37.4,38.5,115,37.6,112,38.8,89.2,40.0,38.0,44.4,4.19,4.19,3.37,-2.47,0.032423,1.13572754,0.202288,3.94865377
133.00,1,102.980,1,102.980,72.548,95.646,5391.528,12.048,0.9739,77.1,-0.088,78.2,0.558,34.1,114.0,114,74.5,5.67,806,4.68,6.36,536.101,2243.04,0.029,0.0481,36.5512,6.46,4.92,37.1,32.8,0.818,255,208,137,1.27,1.534,0.0425,0.0425,0.962,1033,1033,15,1,115,36.6,113.3,110.5,38.6,39.7,113,38.8,110,39.8,89.2,39.9,38.0,44.4,4.19,4.19,4.87,-3.43,0.032426,1.13857260,0.202315,3.95836319
134.00,1,103.980,1,103.980,72.556,95.527,5390.570,12.048,0.9739,77.1,0.021,78.2,0.558,34.1,102.1,114,74.4,5.67,806,4.74,6.35,536.101,2242.89,0.029,0.0481,36.5512,6.46,4.92,37.1,32.8,0.819,256,210,116,1.12,1.160,0.0425,0.0425,0.961,1033,1033,15,1,115,36.6,111.9,109.2,39.7,40.7,112,39.9,109,40.9,89.3,39.9,38.0,44.4,4.19,4.19,4.73,-2.98,0.032426,1.14141990,0.202338,3.96807658
135.00,1,104.980,1,104.980,72.556,95.418,5389.613,12.048,0.9739,77.0,0.212,78.2,0.559,34.1,87.9,114,74.3,5.67,806,4.62,6.35,536.143,2548.05,0.029,0.0481,36.5692,6.46,7.10,37.1,32.8,0.819,256,209,90,0.95,0.663,0.0425,0.0425,0.960,1033,1033,15,1,159,0.5,115.3,112.6,36.8,37.9,113,38.6,110,39.7,89.2,39.9,38.0,44.4,4.19,4.19,4.11,-3.86,0.032427,1.14426751,0.202372,3.97779175
136.00,1,105.980,1,105.980,72.549,95.263,5388.659,12.048,0.9738,77.0,0.002,78.2,0.559,34.1,76.2,114,74.1,5.67,806,4.57,6.35,536.143,2776.86,0.029,0.0481,36.5692,6.46,7.52,37.1,32.8,0.818,255,208,69,0.82,0.260,0.0425,0.0425,0.959,1033,1033,15,1,159,0.4,118.0,115.3,34.8,35.9,116,36.6,113,37.9,89.2,40.0,38.0,44.4,4.20,4.20,3.40,-2.59,0.032430,1.14711393,0.202416,3.98750833
137.00,1,106.980,1,106.980,72.546,95.216,5387.704,12.048,0.9738,77.0,-0.090,78.1,0.559,34.1,105.8,114,74.1,5.67,805,4.64,6.34,536.143,2449.85,0.029,0.0481,36.5692,6.46,5.19,37.1,32.8,0.816,252,206,122,1.19,1.213,0.0425,0.0425,0.959,1034,1034,15,1,121,31.8,114.9,112.1,37.4,38.5,115,37.7,112,38.8,89.2,40.0,38.0,44.4,4.20,4.20,4.12,-3.10,0.032433,1.14995865,0.202459,3.99722645
138.00,1,107.980,1,107.980,72.546,95.186,5386.746,12.048,0.9738,77.1,-0.034,78.1,0.559,34.1,111.0,114,74.0,5.67,805,4.72,6.34,536.143,2243.01,0.029,0.0481,36.5692,6.46,4.92,37.1,32.8,0.819,256,210,132,1.22,1.452,0.0425,0.0425,0.959,1033,1033,15,1,115,36.6,113.2,110.5,38.7,39.7,113,38.8,110,39.9,89.2,39.9,38.0,44.4,4.20,4.20,5.10,-3.52,0.032435,1.15280428,0.202480,4.00694790
139.00,1,108.980,1,108.980,72.549,95.162,5385.789,12.048,0.9739,77.0,0.098,78.1,0.559,34.1,95.2,114,74.0,5.66,805,4.67,6.34,536.143,2242.89,0.029,0.0481,36.5692,6.46,4.92,37.1,32.8,0.819,256,210,104,1.04,0.917,0.0425,0.0425,0.959,1033,1033,15,1,115,36.6,111.8,109.1,39.7,40.7,112,39.9,109,40.9,89.2,39.9,38.0,44.4,4.20,4.20,4.33,-2.72,0.032435,1.15565115,0.202508,4.01667148
140.00,1,109.980,1,109.980,72.555,95.158,5384.834,12.048,0.9739,77.0,0.044,78.0,0.559,34.1,82.3,114,74.0,5.66,805,4.58,6.34,536.179,2556.74,0.029,0.0481,36.5904,6.46,7.14,37.1,32.8,0.818,255,209,80,0.89,0.469,0.0425,0.0425,0.959,1033,1033,15,1,159,0.4,115.4,112.7,36.7,37.8,113,38.5,110,39.6,89.2,39.9,38.0,44.4,4.20,4.20,3.83,-3.68,0.032436,1.15849742,0.202548,4.02639450
141.00,1,110.980,1,110.980,72.579,95.177,5383.879,12.048,0.9738,77.0,-0.017,78.0,0.558,34.1,81.2,114,74.0,5.66,805,4.60,6.34,536.179,2775.68,0.029,0.0481,36.5904,6.46,7.49,37.1,32.8,0.816,252,205,76,0.90,0.375,0.0425,0.0425,0.960,1033,1033,15,1,159,0.5,118.0,115.2,34.8,36.0,116,36.7,113,37.9,89.2,40.0,38.0,44.4,4.20,4.20,3.29,-2.55,0.032439,1.16134218,0.202596,4.03611730
142.00,1,111.980,1,111.980,72.594,95.188,5382.923,12.048,0.9737,77.0,0.017,78.0,0.558,34.1,113.1,114,74.0,5.66,805,4.67,6.33,536.179,2439.60,0.029,0.0481,36.5904,6.46,5.14,37.1,32.8,0.818,254,208,136,1.26,1.491,0.0425,0.0425,0.960,1034,1034,15,1,121,32.2,114.9,112.1,37.5,38.6,115,37.7,112,38.9,89.1,40.0,38.0,44.4,4.20,4.20,4.81,-3.60,0.032442,1.16418633,0.202627,4.04584093
143.00,1,112.980,1,112.980,72.611,95.197,5381.965,12.048,0.9738,77.1,0.004,77.9,0.558,34.1,103.6,114,74.0,5.66,805,4.74,6.34,536.179,2242.99,0.029,0.0481,36.5904,6.46,4.92,37.1,32.8,0.819,256,210,119,1.13,1.208,0.0425,0.0425,0.960,1033,1033,15,1,115,36.7,113.2,110.4,38.7,39.8,113,38.9,110,39.9,89.2,39.9,38.0,44.4,4.20,4.20,4.85,-3.26,0.032444,1.16703232,0.202650,4.05556677
144.00,1,113.980,1,113.980,72.630,95.194,5381.009,12.048,0.9739,77.0,0.205,77.9,0.558,34.1,89.2,114,74.1,5.66,804,4.62,6.33,536.179,2242.89,0.029,0.0481,36.5904,6.46,4.92,37.1,32.8,0.819,256,209,93,0.97,0.708,0.0425,0.0425,0.960,1033,1033,15,1,115,36.7,111.8,109.1,39.8,40.7,112,40.0,109,41.0,89.2,39.9,38.0,44.4,4.21,4.21,4.01,-2.51,0.032445,1.16987890,0.202685,4.06529247
145.00,1,114.980,1,114.980,72.671,95.208,5380.054,12.048,0.9739,77.0,-0.032,77.9,0.558,34.1,77.5,114,74.1,5.66,804,4.55,6.33,536.207,2565.36,0.029,0.0482,36.6111,6.46,7.18,37.1,32.8,0.818,255,209,71,0.83,0.300,0.0425,0.0425,0.960,1033,1033,15,1,159,0.4,115.5,112.8,36.6,37.7,113,38.4,111,39.5,89.2,39.9,38.0,44.4,4.21,4.21,3.58,-3.50,0.032446,1.17272460,0.202729,4.07501738
146.00,1,115.980,1,115.980,72.693,95.217,5379.099,12.048,0.9737,77.0,-0.084,77.9,0.558,34.1,102.2,114,74.1,5.66,804,4.62,6.33,536.207,2774.26,0.029,0.0482,36.6111,6.46,7.47,37.1,32.8,0.816,252,206,115,1.15,1.078,0.0425,0.0425,0.960,1033,1033,15,1,159,0.5,118.0,115.2,34.9,36.0,116,36.7,113,37.9,89.1,40.0,38.0,44.4,4.21,4.21,3.95,-3.14,0.032448,1.17556880,0.202775,4.08474198
147.00,1,116.980,1,116.980,72.715,95.222,5378.141,12.048,0.9737,77.1,-0.029,77.9,0.558,34.1,112.7,114,74.1,5.66,804,4.70,6.33,536.207,2429.31,0.029,0.0482,36.6111,6.46,5.08,37.1,32.8,0.818,256,209,136,1.25,1.500,0.0425,0.0425,0.960,1034,1034,15,1,120,32.6,114.8,112.0,37.6,38.7,115,37.8,112,38.9,89.1,40.0,38.0,44.4,4.21,4.21,5.12,-3.78,0.032451,1.17841386,0.202799,4.09446849
148.00,1,117.980,1,117.980,72.737,95.223,5377.184,12.048,0.9738,77.0,0.072,77.8,0.558,34.1,96.9,114,74.1,5.66,804,4.68,6.33,536.207,2242.98,0.029,0.0482,36.6111,6.46,4.92,37.1,32.8,0.819,256,210,107,1.05,0.974,0.0425,0.0425,0.960,1033,1033,15,1,115,36.7,113.1,110.4,38.8,39.8,113,38.9,110,40.0,89.2,40.0,38.0,44.4,4.21,4.21,4.44,-2.96,0.032453,1.18126062,0.202827,4.10419673
149.00,1,118.980,1,118.980,72.759,95.210,5376.229,12.048,0.9738,77.0,0.098,77.8,0.558,34.1,83.7,114,74.1,5.66,804,4.58,6.33,536.207,2242.89,0.029,0.0482,36.6111,6.46,4.92,37.1,32.8,0.818,256,209,83,0.90,0.516,0.0425,0.0425,0.960,1033,1033,15,1,115,36.7,111.8,109.1,39.8,40.8,112,40.0,109,41.0,89.2,39.9,38.0,44.4,4.21,4.21,3.73,-2.33,0.032454,1.18410715,0.202867,4.11392411
150.00,1,119.980,1,119.980,72.805,95.212,5375.274,12.048,0.9739,77.0,0.041,77.8,0.558,34.1,76.6,114,74.1,5.66,804,4.58,6.32,536.243,2573.87,0.029,0.0482,36.6295,6.46,7.21,37.1,32.8,0.816,253,207,69,0.83,0.241,0.0425,0.0425,0.960,1033,1033,15,1,159,0.4,115.7,113.0,36.5,37.6,113,38.3,111,39.5,89.2,39.9,38.0,44.4,4.21,4.21,3.37,-3.37,0.032456,1.18695246,0.202916,4.12365128
151.00,1,120.980,1,120.980,72.828,95.216,5374.318,12.048,0.9737,77.0,0.668,77.8,0.558,34.1,112.1,114,74.1,5.66,803,4.65,6.32,536.243,2772.57,0.029,0.0482,36.6295,6.46,7.44,37.1,32.8,0.817,254,208,134,1.25,1.450,0.0425,0.0425,0.959,1033,1033,15,1,159,0.6,117.9,115.1,34.9,36.1,116,36.7,113,37.9,89.1,40.1,38.0,44.4,4.21,4.21,4.71,-3.74,0.032458,1.18979692,0.202952,4.13337919
152.00,1,121.980,1,121.980,72.851,95.217,5373.360,12.048,0.9737,77.1,-0.010,77.8,0.558,34.1,105.4,114,74.1,5.67,803,4.73,6.32,536.243,2418.98,0.029,0.0482,36.6295,6.46,5.03,37.1,32.8,0.819,257,210,123,1.15,1.267,0.0426,0.0426,0.959,1034,1034,15,1,120,32.9,114.7,111.9,37.6,38.7,114,37.8,112,39.0,89.1,40.1,38.0,44.4,4.22,4.22,4.97,-3.58,0.032460,1.19264315,0.202975,4.14310966
153.00,1,122.980,1,122.980,72.875,95.216,5372.404,12.048,0.9738,77.0,0.189,77.8,0.558,34.1,90.7,114,74.1,5.67,803,4.62,6.32,536.243,2242.96,0.029,0.0482,36.6295,6.46,4.92,37.1,32.8,0.818,256,210,96,0.98,0.757,0.0426,0.0426,0.959,1033,1033,15,1,115,36.7,113.1,110.3,38.8,39.9,113,39.0,110,40.0,89.2,40.0,38.0,44.4,4.22,4.22,4.10,-2.72,0.032463,1.19549026,0.203009,4.15284076
154.00,1,123.980,1,123.980,72.898,95.199,5371.449,12.048,0.9738,77.0,-0.039,77.7,0.558,34.1,78.7,114,74.1,5.66,803,4.55,6.32,536.243,2242.89,0.029,0.0482,36.6295,6.46,4.92,37.1,32.8,0.818,256,209,74,0.84,0.340,0.0426,0.0426,0.959,1033,1033,15,1,115,36.7,111.8,109.1,39.8,40.8,111,40.0,109,41.0,89.2,39.9,38.0,44.4,4.22,4.22,3.47,-2.16,0.032464,1.19833665,0.203054,4.16257137
155.00,1,124.980,1,124.980,72.945,95.203,5370.494,12.048,0.9738,77.0,-0.073,77.7,0.558,34.1,97.7,114,74.1,5.67,803,4.60,6.32,536.272,2582.28,0.029,0.0482,36.6451,6.46,7.25,37.1,32.8,0.815,252,205,107,1.09,0.915,0.0426,0.0426,0.959,1033,1033,15,1,159,0.4,115.8,113.1,36.4,37.5,114,38.3,111,39.4,89.2,40.0,38.0,44.4,4.22,4.22,3.81,-3.79,0.032465,1.20118152,0.203102,4.17230194
156.00,1,125.980,1,125.980,72.969,95.208,5369.537,12.048,0.9737,77.1,-0.035,77.7,0.558,34.1,113.4,114,74.1,5.67,803,4.68,6.32,536.272,2770.61,0.029,0.0482,36.6451,6.46,7.41,37.1,32.8,0.818,256,209,137,1.25,1.516,0.0426,0.0426,0.959,1033,1033,15,1,159,0.8,117.8,115.1,35.0,36.1,116,36.8,113,38.0,89.1,40.1,38.0,44.4,4.22,4.22,5.12,-4.02,0.032467,1.20402690,0.203128,4.18203449
157.00,1,126.980,1,126.980,72.993,95.209,5368.580,12.048,0.9737,77.0,0.043,77.7,0.558,34.1,98.5,114,74.1,5.67,802,4.68,6.32,536.272,2408.63,0.029,0.0482,36.6451,6.46,4.97,37.1,32.8,0.819,257,210,110,1.07,1.028,0.0426,0.0426,0.959,1034,1034,15,1,119,33.3,114.7,111.9,37.7,38.8,114,37.9,112,39.0,89.1,40.1,38.0,44.4,4.22,4.22,4.56,-3.25,0.032470,1.20687405,0.203156,4.19176927
158.00,1,127.980,1,127.980,73.017,95.208,5367.624,12.048,0.9737,77.0,0.157,77.7,0.558,34.1,85.1,114,74.1,5.67,802,4.57,6.32,536.272,2242.95,0.029,0.0482,36.6451,6.46,4.92,37.1,32.8,0.818,256,209,85,0.92,0.560,0.0426,0.0426,0.958,1033,1033,15,1,115,36.7,113.1,110.3,38.9,39.9,113,39.0,110,40.1,89.1,40.0,38.0,44.4,4.22,4.22,3.81,-2.53,0.032472,1.20972116,0.203195,4.20150355
159.00,1,128.980,1,128.980,73.065,95.192,5366.670,12.048,0.9738,77.0,0.062,77.6,0.557,34.1,74.1,114,74.1,5.67,802,4.56,6.32,536.272,2242.89,0.029,0.0482,36.6451,6.46,4.92,37.1,32.8,0.817,255,209,65,0.79,0.183,0.0426,0.0426,0.958,1033,1033,15,1,115,36.7,111.8,109.0,39.8,40.8,111,40.0,109,41.0,89.2,40.0,38.0,44.4,4.22,4.22,3.24,-2.01,0.032474,1.21256716,0.203244,4.21123774
160.00,1,129.980,1,129.980,73.090,95.196,5365.714,12.048,0.9738,77.0,0.214,77.6,0.557,34.1,110.6,114,74.1,5.67,802,4.63,6.31,536.292,2590.57,0.029,0.0482,36.6583,6.46,7.28,37.1,32.8,0.817,254,207,131,1.23,1.388,0.0426,0.0426,0.958,1033,1033,15,1,159,0.4,115.9,113.2,36.3,37.4,114,38.2,111,39.3,89.2,40.0,37.9,44.4,4.23,4.23,4.61,-4.41,0.032474,1.21541208,0.203284,4.22097252
161.00,1,130.980,1,130.980,73.115,95.202,5364.756,12.048,0.9737,77.1,-0.018,77.6,0.557,34.1,107.2,114,74.1,5.67,802,4.71,6.31,536.292,2768.39,0.029,0.0482,36.6583,6.46,7.38,37.1,32.8,0.819,257,210,126,1.17,1.325,0.0426,0.0426,0.958,1033,1033,15,1,159,0.9,117.8,115.0,35.1,36.2,116,36.8,113,38.0,89.1,40.1,37.9,44.4,4.23,4.23,5.09,-3.91,0.032476,1.21825859,0.203308,4.23070993
162.00,1,131.980,1,131.980,73.139,95.203,5363.800,12.048,0.9737,77.0,0.161,77.6,0.557,34.1,92.2,114,74.1,5.67,802,4.62,6.31,536.292,2398.27,0.029,0.0482,36.6583,6.46,4.92,37.1,32.8,0.818,257,210,99,1.00,0.808,0.0426,0.0426,0.958,1034,1034,15,1,119,33.6,114.6,111.8,37.7,38.8,114,37.9,112,39.1,89.1,40.1,37.9,44.4,4.23,4.23,4.19,-2.98,0.032479,1.22110617,0.203341,4.24044836
163.00,1,132.980,1,132.980,73.164,95.201,5362.845,12.048,0.9737,77.0,-0.028,77.6,0.557,34.1,79.9,114,74.1,5.68,802,4.54,6.31,536.292,2242.94,0.029,0.0482,36.6583,6.46,4.92,37.1,32.8,0.818,256,209,76,0.85,0.381,0.0426,0.0426,0.958,1033,1033,15,1,115,36.7,113.1,110.3,38.9,39.9,113,39.0,110,40.1,89.1,40.0,37.9,44.4,4.23,4.23,3.55,-2.35,0.032482,1.22395315,0.203385,4.25018628
164.00,1,133.980,1,133.980,73.213,95.184,5361.891,12.048,0.9738,77.0,-0.067,77.5,0.557,34.1,92.4,114,74.1,5.68,801,4.59,6.31,536.292,2242.89,0.029,0.0482,36.6583,6.46,4.92,37.1,32.8,0.815,252,205,97,1.03,0.733,0.0426,0.0426,0.957,1033,1033,15,1,115,36.7,111.8,109.0,39.9,40.8,111,40.1,109,41.1,89.2,40.0,37.9,44.4,4.23,4.23,3.45,-2.24,0.032483,1.22679865,0.203435,4.25992416
165.00,1,134.980,1,134.980,73.238,95.190,5360.934,12.048,0.9737,77.0,-0.028,77.5,0.557,34.1,113.6,114,74.1,5.68,801,4.66,6.31,536.305,2598.74,0.029,0.0483,36.6696,6.46,7.31,37.1,32.8,0.818,255,209,138,1.26,1.515,0.0426,0.0426,0.957,1033,1033,15,1,159,0.4,116.0,113.3,36.3,37.4,114,38.1,111,39.3,89.2,40.0,37.9,44.4,4.23,4.23,5.13,-4.78,0.032483,1.22964432,0.203464,4.26966376
166.00,1,135.980,1,135.980,73.263,95.196,5359.977,12.048,0.9736,77.0,0.037,77.5,0.557,34.1,100.2,114,74.1,5.68,801,4.69,6.31,536.305,2765.91,0.029,0.0483,36.6696,6.46,7.35,37.1,32.8,0.819,257,210,113,1.09,1.084,0.0426,0.0426,0.957,1033,1033,15,1,159,1.2,117.7,114.9,35.1,36.3,116,36.9,113,38.1,89.1,40.1,37.9,44.4,4.23,4.23,4.69,-3.56,0.032485,1.23249183,0.203491,4.27940580
167.00,1,136.980,1,136.980,73.288,95.197,5359.021,12.048,0.9736,77.0,0.170,77.5,0.557,34.1,86.5,114,74.1,5.68,801,4.57,6.31,536.305,2387.90,0.029,0.0483,36.6696,6.46,4.87,37.1,32.8,0.818,256,210,88,0.93,0.607,0.0426,0.0426,0.957,1034,1034,15,1,119,33.9,114.6,111.8,37.8,38.9,114,37.9,112,39.1,89.1,40.1,37.9,44.4,4.23,4.23,3.89,-2.76,0.032489,1.23533948,0.203530,4.28914756
168.00,1,137.980,1,137.980,73.336,95.173,5358.067,12.048,0.9737,77.0,0.013,77.4,0.557,34.1,75.2,114,74.1,5.68,801,4.54,6.31,536.305,2242.93,0.029,0.0483,36.6696,6.46,4.92,37.1,32.8,0.817,256,209,67,0.80,0.219,0.0426,0.0426,0.957,1033,1033,15,1,115,36.7,113.1,110.3,38.9,39.9,113,39.0,110,40.1,89.1,40.1,37.9,44.4,4.23,4.23,3.31,-2.19,0.032491,1.23818614,0.203578,4.29888924
169.00,1,138.980,1,138.980,73.361,95.179,5357.111,12.048,0.9738,77.0,0.005,77.5,0.557,34.1,108.5,114,74.1,5.68,801,4.61,6.30,536.305,2242.89,0.029,0.0483,36.6696,6.46,4.92,37.1,32.8,0.816,254,207,127,1.21,1.305,0.0426,0.0426,0.956,1033,1033,15,1,115,36.7,111.7,109.0,39.9,40.9,111,40.1,109,41.1,89.2,40.0,37.9,44.4,4.24,4.24,4.22,-2.81,0.032492,1.24103154,0.203621,4.30863132
170.00,1,139.980,1,139.980,73.386,95.182,5356.154,12.048,0.9737,77.1,-0.021,77.4,0.557,34.1,109.0,114,74.1,5.68,801,4.69,6.30,536.309,2606.79,0.029,0.0483,36.6791,6.46,7.34,37.1,32.8,0.819,257,210,130,1.19,1.383,0.0426,0.0426,0.956,1033,1033,15,1,159,0.4,116.1,113.4,36.2,37.3,114,38.1,111,39.2,89.2,40.0,37.9,44.4,4.24,4.24,5.26,-4.82,0.032492,1.24387835,0.203646,4.31837598
171.00,1,140.980,1,140.980,73.411,95.187,5355.197,12.048,0.9736,77.0,0.149,77.4,0.557,34.1,93.7,114,74.1,5.68,800,4.63,6.30,536.309,2763.17,0.029,0.0483,36.6791,6.46,7.32,37.1,32.8,0.818,257,210,102,1.01,0.859,0.0426,0.0426,0.956,1033,1033,15,1,158,1.4,117.6,114.9,35.2,36.3,116,36.9,113,38.1,89.1,40.1,37.9,44.4,4.24,4.24,4.30,-3.25,0.032495,1.24672642,0.203678,4.32812202
172.00,1,141.980,1,141.980,73.435,95.188,5354.243,12.048,0.9736,77.0,-0.027,77.4,0.557,34.1,81.2,114,74.1,5.68,800,4.54,6.30,536.309,2377.52,0.029,0.0483,36.6791,6.46,4.81,37.1,32.8,0.818,256,209,79,0.87,0.424,0.0426,0.0426,0.956,1034,1034,15,1,118,34.2,114.6,111.8,37.8,38.9,114,38.0,112,39.1,89.1,40.1,37.9,44.4,4.24,4.24,3.63,-2.57,0.032498,1.24957397,0.203722,4.33786751
173.00,1,142.980,1,142.980,73.484,95.171,5353.289,12.048,0.9737,77.0,-0.055,77.4,0.557,34.1,86.8,114,74.1,5.68,800,4.57,6.30,536.309,2242.93,0.029,0.0483,36.6791,6.46,4.92,37.1,32.8,0.815,252,205,87,0.96,0.543,0.0426,0.0426,0.956,1033,1033,15,1,115,36.7,113.1,110.3,38.9,40.0,113,39.0,110,40.1,89.1,40.1,37.9,44.4,4.24,4.24,3.34,-2.27,0.032501,1.25242014,0.203773,4.34761301
174.00,1,143.980,1,143.980,73.508,95.172,5352.332,12.048,0.9738,77.0,-0.060,77.4,0.557,34.1,113.4,114,74.1,5.69,800,4.64,6.30,536.309,2242.89,0.029,0.0483,36.6791,6.46,4.92,37.1,32.8,0.817,255,209,137,1.25,1.501,0.0426,0.0426,0.956,1033,1033,15,1,115,36.7,111.7,109.0,39.9,40.9,111,40.1,109,41.1,89.2,40.0,37.9,44.4,4.24,4.24,4.82,-3.19,0.032501,1.25526614,0.203804,4.35736000
175.00,1,144.980,1,144.980,73.532,95.173,5351.375,12.048,0.9737,77.0,0.022,77.3,0.557,34.1,101.8,114,74.1,5.69,800,4.69,6.30,536.314,2614.74,0.029,0.0483,36.6875,6.46,7.37,37.1,32.8,0.819,257,211,116,1.11,1.139,0.0426,0.0426,0.955,1033,1033,15,1,159,0.3,116.2,113.5,36.1,37.3,114,38.0,111,39.2,89.2,40.0,37.9,44.4,4.24,4.24,4.92,-4.53,0.032502,1.25811401,0.203831,4.36710955
176.00,1,145.980,1,145.980,73.557,95.177,5350.419,12.048,0.9736,77.0,0.205,77.3,0.557,34.1,87.9,114,74.1,5.69,800,4.57,6.30,536.314,2760.19,0.029,0.0483,36.6875,6.46,7.28,37.1,32.8,0.818,257,210,91,0.95,0.654,0.0426,0.0426,0.955,1033,1033,15,1,158,1.7,117.6,114.8,35.3,36.4,116,36.9,113,38.2,89.1,40.1,37.9,44.4,4.24,4.24,3.98,-3.02,0.032504,1.26096222,0.203869,4.37685918
177.00,1,146.980,1,146.980,73.606,95.177,5349.465,12.048,0.9736,77.0,0.001,77.3,0.557,34.1,76.4,114,74.1,5.69,799,4.53,6.30,536.314,2367.12,0.029,0.0483,36.6875,6.46,4.76,37.1,32.8,0.817,256,209,70,0.81,0.258,0.0426,0.0426,0.955,1034,1034,15,1,118,34.5,114.6,111.8,37.8,38.9,114,38.0,112,39.1,89.1,40.1,37.9,44.4,4.24,4.24,3.38,-2.39,0.032508,1.26380950,0.203917,4.38660862
178.00,1,147.980,1,147.980,73.630,95.170,5348.510,12.048,0.9737,77.0,-0.074,77.3,0.557,34.1,105.6,114,74.1,5.69,799,4.60,6.30,536.314,2242.92,0.029,0.0483,36.6875,6.46,4.92,37.1,32.8,0.816,253,207,122,1.18,1.196,0.0426,0.0426,0.955,1033,1033,15,1,115,36.7,113.0,110.3,38.9,40.0,113,39.1,110,40.1,89.1,40.1,37.9,44.4,4.25,4.25,4.07,-2.86,0.032510,1.26665541,0.203963,4.39635834
179.00,1,148.980,1,148.980,73.654,95.166,5347.553,12.048,0.9737,77.0,-0.033,77.3,0.557,34.1,110.9,114,74.1,5.69,799,4.67,6.29,536.314,2242.89,0.029,0.0483,36.6875,6.46,4.92,37.1,32.8,0.818,257,210,133,1.21,1.438,0.0426,0.0426,0.955,1033,1033,15,1,115,36.7,111.6,108.9,40.0,41.0,111,40.2,109,41.2,89.2,40.0,37.9,44.4,4.25,4.25,5.05,-3.28,0.032510,1.26950251,0.203989,4.40611053
180.00,1,149.980,1,149.980,73.678,95.164,5346.596,12.048,0.9737,77.0,0.120,77.3,0.557,34.1,95.3,114,74.1,5.69,799,4.63,6.29,536.329,2622.56,0.029,0.0483,36.6956,6.46,7.40,37.1,32.8,0.818,257,210,105,1.03,0.910,0.0427,0.0427,0.955,1033,1033,15,1,159,0.3,116.3,113.6,36.1,37.2,114,38.0,111,39.1,89.1,40.0,37.9,44.4,4.25,4.25,4.52,-4.24,0.032511,1.27235106,0.204021,4.41586445
181.00,1,150.980,1,150.980,73.702,95.168,5345.641,12.048,0.9736,77.0,-0.006,77.3,0.556,34.1,82.5,114,74.1,5.69,799,4.54,6.29,536.329,2756.96,0.029,0.0483,36.6956,6.46,7.25,37.1,32.8,0.818,257,210,81,0.88,0.467,0.0427,0.0427,0.954,1033,1033,15,1,158,2.0,117.5,114.8,35.3,36.5,116,37.0,113,38.2,89.1,40.1,37.9,44.4,4.25,4.25,3.71,-2.80,0.032514,1.27519920,0.204064,4.42561780
182.00,1,151.980,1,151.980,73.751,95.168,5344.687,12.048,0.9736,77.0,-0.028,77.2,0.556,34.1,81.2,114,74.1,5.70,799,4.55,6.29,536.329,2356.72,0.029,0.0483,36.6956,6.46,4.71,37.1,32.8,0.815,253,206,77,0.89,0.367,0.0427,0.0427,0.954,1034,1034,15,1,118,34.8,114.5,111.7,37.8,39.0,114,38.0,112,39.2,89.1,40.1,37.9,44.4,4.25,4.25,3.27,-2.34,0.032518,1.27804600,0.204115,4.43537118
183.00,1,152.980,1,152.980,73.775,95.167,5343.731,12.048,0.9737,77.0,-0.010,77.2,0.556,34.1,112.9,114,74.1,5.70,799,4.63,6.29,536.329,2242.92,0.029,0.0483,36.6956,6.46,4.92,37.1,32.8,0.817,255,209,136,1.25,1.473,0.0427,0.0427,0.954,1033,1033,15,1,115,36.8,113.0,110.2,39.0,40.0,113,39.1,110,40.2,89.1,40.1,37.9,44.4,4.25,4.25,4.75,-3.33,0.032519,1.28089233,0.204150,4.44512577
184.00,1,153.980,1,153.980,73.798,95.160,5342.774,12.048,0.9737,77.0,0.012,77.2,0.556,34.1,103.5,114,74.2,5.70,798,4.69,6.29,536.329,2242.89,0.029,0.0483,36.6956,6.46,4.92,37.1,32.8,0.818,257,211,120,1.13,1.195,0.0427,0.0427,0.954,1033,1033,15,1,115,36.8,111.6,108.9,40.0,41.0,111,40.3,109,41.2,89.2,40.0,37.9,44.4,4.25,4.25,4.82,-3.04,0.032520,1.28374053,0.204176,4.45488304
185.00,1,154.980,1,154.980,73.822,95.156,5341.818,12.048,0.9737,77.0,0.210,77.2,0.556,34.1,89.3,113,74.1,5.70,798,4.57,6.29,536.355,2630.26,0.029,0.0483,36.7044,6.46,7.43,37.1,32.8,0.818,257,210,94,0.96,0.701,0.0427,0.0427,0.954,1033,1033,15,1,159,0.3,116.4,113.7,36.0,37.1,114,37.9,111,39.1,89.1,40.1,37.8,44.4,4.25,4.25,4.18,-3.99,0.032521,1.28658932,0.204214,4.46464072
186.00,1,155.980,1,155.980,73.870,95.160,5340.864,12.048,0.9736,77.0,-0.032,77.2,0.556,34.1,77.6,113,74.2,5.70,798,4.51,6.29,536.355,2753.49,0.029,0.0483,36.7044,6.46,7.21,37.1,32.8,0.817,256,210,72,0.82,0.296,0.0427,0.0427,0.953,1033,1033,15,1,157,2.4,117.5,114.7,35.4,36.5,116,37.0,113,38.2,89.1,40.1,37.8,44.4,4.26,4.26,3.46,-2.61,0.032523,1.28943723,0.204261,4.47439812
187.00,1,156.980,1,156.980,73.894,95.160,5339.910,12.048,0.9736,77.0,-0.090,77.1,0.556,34.1,102.0,113,74.2,5.70,798,4.58,6.29,536.355,2346.32,0.029,0.0483,36.7044,6.46,4.66,37.1,32.8,0.815,253,206,115,1.14,1.061,0.0427,0.0427,0.953,1034,1034,15,1,117,35.0,114.5,111.7,37.9,39.0,114,38.0,111,39.2,89.1,40.1,37.8,44.4,4.26,4.26,3.91,-2.90,0.032527,1.29228366,0.204309,4.48415569
188.00,1,157.980,1,157.980,73.918,95.159,5338.953,12.048,0.9737,77.0,-0.034,77.1,0.556,34.1,112.5,113,74.2,5.70,798,4.65,6.29,536.355,2242.91,0.029,0.0483,36.7044,6.46,4.92,37.1,32.8,0.818,257,210,136,1.24,1.482,0.0427,0.0427,0.953,1033,1033,15,1,115,36.8,112.9,110.2,39.0,40.1,113,39.2,110,40.2,89.1,40.1,37.8,44.4,4.26,4.26,5.07,-3.50,0.032528,1.29513100,0.204336,4.49391556
189.00,1,158.980,1,158.980,73.942,95.152,5337.996,12.048,0.9737,77.0,0.086,77.1,0.556,34.1,96.8,113,74.2,5.70,798,4.64,6.28,536.355,2242.89,0.029,0.0483,36.7044,6.46,4.92,37.1,32.8,0.818,258,211,108,1.05,0.963,0.0427,0.0427,0.953,1033,1033,15,1,115,36.8,111.5,108.8,40.1,41.0,111,40.3,109,41.3,89.1,40.0,37.8,44.4,4.26,4.26,4.42,-2.75,0.032529,1.29798000,0.204367,4.50367749
190.00,1,159.980,1,159.980,73.966,95.148,5337.041,12.048,0.9737,77.0,0.057,77.1,0.556,34.1,83.8,113,74.2,5.70,798,4.53,6.28,536.392,2637.83,0.029,0.0483,36.7149,6.46,7.46,37.1,32.8,0.818,257,210,84,0.90,0.510,0.0427,0.0427,0.953,1033,1033,15,1,159,0.3,116.5,113.8,35.9,37.1,114,37.8,111,39.0,89.1,40.1,37.8,44.4,4.26,4.26,3.90,-3.78,0.032530,1.30082875,0.204410,4.51343887
191.00,1,160.980,1,160.980,74.014,95.153,5336.088,12.048,0.9736,77.0,0.026,77.1,0.556,34.1,76.6,113,74.2,5.70,797,4.54,6.28,536.392,2749.77,0.029,0.0483,36.7149,6.46,7.17,37.1,32.8,0.816,254,207,69,0.82,0.235,0.0427,0.0427,0.953,1034,1034,15,1,157,2.8,117.4,114.7,35.4,36.6,116,37.0,113,38.2,89.1,40.2,37.8,44.4,4.26,4.26,3.26,-2.47,0.032533,1.30367623,0.204461,4.52320029
192.00,1,161.980,1,161.980,74.038,95.153,5335.132,12.048,0.9735,77.0,0.668,77.1,0.556,34.1,111.9,113,74.2,5.70,797,4.61,6.28,536.392,2335.91,0.029,0.0483,36.7149,6.46,4.61,37.1,32.8,0.817,255,208,135,1.24,1.431,0.0427,0.0427,0.952,1034,1034,15,1,117,35.3,114.5,111.7,37.9,39.1,114,38.1,111,39.2,89.0,40.2,37.8,44.4,4.26,4.26,4.67,-3.46,0.032536,1.30652289,0.204499,4.53296265
193.00,1,162.980,1,162.980,74.061,95.152,5334.175,12.048,0.9736,77.0,0.001,77.0,0.556,34.1,105.3,113,74.2,5.71,797,4.68,6.28,536.392,2242.91,0.029,0.0483,36.7149,6.46,4.92,37.1,32.8,0.818,258,211,123,1.14,1.252,0.0427,0.0427,0.952,1033,1033,15,1,115,36.8,112.9,110.1,39.1,40.1,113,39.2,110,40.3,89.1,40.1,37.8,44.4,4.26,4.26,4.94,-3.31,0.032538,1.30937136,0.204525,4.54272775
194.00,1,163.980,1,163.980,74.085,95.144,5333.219,12.048,0.9737,77.0,0.205,77.0,0.556,34.1,90.5,113,74.2,5.71,797,4.57,6.28,536.392,2242.89,0.029,0.0483,36.7149,6.46,4.92,37.1,32.8,0.818,257,211,96,0.97,0.739,0.0427,0.0427,0.952,1033,1033,15,1,115,36.8,111.5,108.8,40.1,41.1,111,40.3,108,41.3,89.1,40.1,37.8,44.4,4.26,4.26,4.07,-2.53,0.032538,1.31222087,0.204562,4.55249366
195.00,1,164.980,1,164.980,74.119,96.002,5332.265,12.048,0.9737,77.0,0.001,76.3,0.552,34.1,77.6,114,75.2,5.66,797,4.51,6.26,536.441,2645.28,0.029,0.0483,36.7275,6.46,7.49,37.1,32.8,0.817,257,210,72,0.82,0.297,0.0427,0.0427,0.970,1033,1033,15,1,160,0.3,116.7,113.9,35.8,37.0,114,37.7,112,38.9,89.1,40.1,37.8,44.4,4.27,4.27,3.56,-3.51,0.032540,1.31507101,0.204607,4.56226037
196.00,1,165.980,1,165.980,74.106,96.000,5331.310,12.048,0.9735,77.0,0.005,76.2,0.552,34.1,109.3,114,75.3,5.64,797,4.59,6.25,536.441,2745.82,0.029,0.0483,36.7275,6.46,7.13,37.1,32.8,0.816,254,208,129,1.22,1.330,0.0427,0.0427,0.972,1034,1034,15,1,156,3.3,117.3,114.6,35.5,36.6,115,37.0,113,38.3,89.0,40.2,37.8,44.4,4.27,4.27,4.40,-3.48,0.032543,1.31792146,0.204648,4.57203009
197.00,1,166.980,1,166.980,74.073,95.842,5330.353,12.048,0.9735,77.0,-0.022,76.1,0.552,34.1,107.0,114,75.2,5.64,796,4.67,6.24,536.441,2325.51,0.029,0.0483,36.7275,6.46,4.56,37.1,32.8,0.818,258,211,126,1.17,1.311,0.0427,0.0427,0.971,1034,1034,15,1,117,35.5,114.3,111.6,38.0,39.1,114,38.2,111,39.3,89.0,40.2,37.8,44.4,4.27,4.27,5.05,-3.61,0.032546,1.32077440,0.204670,4.58180657
198.00,1,167.980,1,167.980,74.024,95.165,5329.398,12.048,0.9736,77.0,0.179,76.3,0.553,34.1,91.5,113,75.0,5.65,796,4.59,6.25,536.441,2242.91,0.029,0.0483,36.7275,6.46,4.92,37.1,32.8,0.818,257,211,97,0.99,0.776,0.0427,0.0427,0.963,1033,1033,15,1,115,36.8,112.8,110.1,39.1,40.2,113,39.3,110,40.4,89.0,40.1,37.8,44.4,4.27,4.27,4.17,-2.75,0.032548,1.32362742,0.204704,4.59158770
199.00,1,168.980,1,168.980,73.980,94.567,5328.445,12.048,0.9736,77.0,-0.041,76.7,0.556,34.1,79.3,113,73.9,5.67,796,4.51,6.25,536.441,2244.33,0.029,0.0484,36.7636,6.46,5.03,37.1,32.8,0.817,257,210,75,0.85,0.350,0.0427,0.0427,0.952,1033,1033,15,1,115,36.8,111.5,108.8,40.1,41.1,111,40.4,108,41.3,89.1,40.1,37.8,44.4,4.27,4.27,3.53,-2.22,0.032549,1.32647730,0.204750,4.60137006
200.00,1,169.980,1,169.980,73.961,94.462,5327.492,12.048,0.9736,77.0,-0.067,76.8,0.556,34.1,91.8,113,73.5,5.68,796,4.56,6.25,536.503,2652.59,0.029,0.0484,36.7636,6.46,7.51,37.1,32.8,0.815,252,206,96,1.02,0.699,0.0427,0.0427,0.949,1033,1033,15,1,160,0.3,116.8,114.0,35.8,36.9,114,37.7,112,38.8,89.1,40.1,37.8,44.4,4.27,4.27,3.64,-3.65,0.032550,1.32932373,0.204801,4.61115197
201.00,1,170.980,1,170.980,73.986,94.596,5326.536,12.048,0.9734,77.0,-0.028,76.8,0.556,34.1,113.0,113,73.6,5.68,796,4.63,6.25,536.503,2741.63,0.029,0.0484,36.7636,6.46,7.10,37.1,32.8,0.817,256,210,137,1.24,1.479,0.0427,0.0427,0.951,1034,1034,15,1,155,3.9,117.2,114.5,35.6,36.7,115,37.1,113,38.3,89.0,40.2,37.8,44.5,4.27,4.27,5.06,-3.96,0.032552,1.33216923,0.204832,4.62093343
202.00,1,171.980,1,171.980,74.026,94.753,5325.579,12.048,0.9735,77.0,0.037,76.7,0.556,34.1,99.9,113,73.8,5.68,796,4.66,6.26,536.503,2315.11,0.029,0.0484,36.7636,6.46,4.51,37.1,32.8,0.818,258,211,114,1.08,1.062,0.0427,0.0427,0.952,1034,1034,15,1,116,35.7,114.3,111.5,38.1,39.2,114,38.2,111,39.4,89.0,40.2,37.8,44.5,4.27,4.27,4.67,-3.29,0.032554,1.33501626,0.204862,4.63071420
203.00,1,172.980,1,172.980,74.076,94.898,5324.624,12.048,0.9735,77.0,0.170,76.7,0.556,34.1,86.2,113,73.9,5.68,796,4.53,6.26,536.503,2242.90,0.029,0.0484,36.7636,6.46,4.92,37.1,32.8,0.818,257,210,88,0.92,0.588,0.0427,0.0427,0.953,1033,1033,15,1,115,36.8,112.8,110.0,39.2,40.2,113,39.3,110,40.4,89.0,40.1,37.8,44.5,4.27,4.27,3.87,-2.55,0.032556,1.33786379,0.204903,4.64049154
204.00,1,173.980,1,173.980,74.174,95.951,5323.670,12.048,0.9736,77.0,0.026,76.0,0.552,34.1,77.8,114,75.1,5.64,795,4.52,6.24,536.503,2247.01,0.029,0.0484,36.7749,6.46,5.14,37.1,32.8,0.816,255,208,72,0.84,0.276,0.0428,0.0428,0.972,1033,1033,15,1,115,36.5,111.4,108.8,40.1,41.1,111,40.4,108,41.4,89.1,40.1,37.8,44.5,4.28,4.28,3.26,-2.08,0.032558,1.34071206,0.204953,4.65026708
205.00,1,174.980,1,174.980,74.193,96.010,5322.714,12.048,0.9735,77.0,-0.010,75.9,0.551,34.1,113.5,114,75.3,5.63,795,4.60,6.24,536.584,2659.74,0.029,0.0484,36.7749,6.46,7.54,37.1,32.8,0.817,256,209,137,1.25,1.495,0.0428,0.0428,0.974,1033,1033,15,1,160,0.3,116.8,114.1,35.7,36.9,115,37.6,112,38.8,89.0,40.2,37.8,44.5,4.28,4.28,4.97,-4.69,0.032559,1.34356176,0.204986,4.66004418
206.00,1,175.980,1,175.980,74.188,95.895,5321.757,12.048,0.9734,77.0,0.022,75.8,0.551,34.1,101.4,114,75.3,5.63,795,4.65,6.23,536.584,2737.18,0.029,0.0484,36.7749,6.46,7.06,37.1,32.8,0.818,258,211,116,1.10,1.121,0.0428,0.0428,0.974,1034,1034,15,1,155,4.5,117.1,114.4,35.7,36.8,115,37.2,112,38.4,89.0,40.2,37.8,44.5,4.28,4.28,4.77,-3.59,0.032562,1.34641490,0.205011,4.66982669
207.00,1,176.980,1,176.980,74.165,95.710,5320.802,12.048,0.9734,77.0,0.170,75.8,0.551,34.1,85.9,114,75.1,5.62,795,4.53,6.23,536.584,2304.77,0.029,0.0484,36.7749,6.46,4.46,37.1,32.8,0.818,257,210,87,0.92,0.581,0.0428,0.0428,0.972,1034,1034,15,1,116,35.9,114.2,111.4,38.1,39.3,114,38.2,111,39.4,88.9,40.2,37.8,44.5,4.28,4.28,3.88,-2.72,0.032565,1.34926880,0.205048,4.67961264
208.00,1,177.980,1,177.980,74.087,95.332,5319.849,12.048,0.9735,77.0,0.026,75.7,0.551,34.1,77.2,113,74.8,5.61,795,4.52,6.22,536.584,2242.90,0.029,0.0484,36.7749,6.46,4.92,37.1,32.8,0.816,255,208,70,0.84,0.249,0.0428,0.0428,0.970,1033,1033,15,1,115,36.9,112.8,110.0,39.2,40.2,113,39.3,110,40.4,89.0,40.2,37.8,44.5,4.28,4.28,3.27,-2.15,0.032568,1.35212114,0.205097,4.68940203
209.00,1,178.980,1,178.980,74.045,95.208,5318.894,12.048,0.9735,77.0,-0.010,75.7,0.552,34.1,112.2,113,74.7,5.61,795,4.60,6.21,536.584,2250.75,0.029,0.0484,36.8120,6.46,5.24,37.1,32.8,0.817,256,209,135,1.24,1.441,0.0428,0.0428,0.970,1033,1033,15,1,116,35.8,111.4,108.7,40.2,41.2,111,40.4,108,41.4,89.0,40.1,37.8,44.5,4.28,4.28,4.69,-3.18,0.032568,1.35497198,0.205131,4.69919562
210.00,1,179.980,1,179.980,74.006,94.654,5317.939,12.048,0.9735,77.0,0.012,75.9,0.553,34.1,102.5,113,74.5,5.62,795,4.67,6.22,536.648,2666.75,0.029,0.0484,36.8120,6.47,7.56,37.1,32.8,0.818,258,211,118,1.12,1.148,0.0428,0.0428,0.962,1033,1033,15,1,160,0.3,116.9,114.1,35.7,36.9,115,37.6,112,38.8,89.0,40.2,37.8,44.5,4.28,4.28,5.02,-4.59,0.032569,1.35782314,0.205159,4.70899365
211.00,1,180.980,1,180.980,73.986,94.217,5316.985,12.048,0.9734,77.0,0.210,76.3,0.555,34.1,88.4,112,73.6,5.65,794,4.56,6.23,536.648,2732.50,0.029,0.0484,36.8120,6.47,7.01,37.1,32.8,0.818,258,211,92,0.95,0.659,0.0428,0.0428,0.952,1034,1034,15,1,154,5.1,117.0,114.3,35.8,36.9,115,37.2,112,38.4,88.9,40.3,37.8,44.5,4.28,4.28,4.06,-3.05,0.032571,1.36067221,0.205198,4.71879133
212.00,1,181.980,1,181.980,74.035,94.351,5316.032,12.048,0.9733,76.9,-0.032,76.4,0.556,34.1,77.0,113,73.5,5.66,794,4.49,6.23,536.648,2295.17,0.029,0.0484,36.8120,6.47,4.47,37.1,32.8,0.817,257,210,72,0.82,0.269,0.0428,0.0428,0.952,1034,1034,15,1,116,36.1,114.2,111.4,38.1,39.3,114,38.3,111,39.4,88.9,40.3,37.8,44.5,4.28,4.28,3.44,-2.42,0.032575,1.36351859,0.205247,4.72858585
213.00,1,182.980,1,182.980,74.094,94.535,5315.078,12.048,0.9735,77.0,-0.090,76.4,0.555,34.1,102.2,113,73.7,5.66,794,4.56,6.23,536.648,2242.90,0.029,0.0484,36.8120,6.47,4.92,37.1,32.8,0.815,253,207,117,1.13,1.060,0.0428,0.0428,0.954,1033,1033,15,1,115,36.9,112.8,110.0,39.2,40.2,113,39.3,110,40.4,89.0,40.2,37.7,44.5,4.29,4.29,3.90,-2.71,0.032577,1.36636272,0.205297,4.73837623
214.00,1,183.980,1,183.980,74.168,95.222,5314.121,12.048,0.9735,77.0,-0.033,76.2,0.554,34.1,110.5,113,74.1,5.65,794,4.64,6.23,536.648,2255.40,0.029,0.0485,36.8204,6.47,5.33,37.1,32.8,0.818,258,211,133,1.20,1.420,0.0428,0.0428,0.962,1033,1033,15,1,118,34.6,111.3,108.7,40.2,41.2,111,40.4,108,41.4,89.0,40.1,37.7,44.5,4.29,4.29,5.06,-3.36,0.032577,1.36920868,0.205323,4.74816489
215.00,1,184.980,1,184.980,74.236,95.786,5313.164,12.048,0.9735,77.0,0.149,75.7,0.551,34.1,93.6,114,75.0,5.62,794,4.57,6.22,536.734,2673.63,0.029,0.0485,36.8204,6.47,7.58,37.1,32.8,0.818,258,211,102,1.01,0.849,0.0428,0.0428,0.974,1033,1033,15,1,160,0.3,116.9,114.2,35.7,36.8,115,37.6,112,38.8,89.0,40.2,37.7,44.5,4.29,4.29,4.40,-4.12,0.032578,1.37205882,0.205356,4.75795295
216.00,1,185.980,1,185.980,74.282,95.926,5312.210,12.048,0.9733,76.9,-0.041,75.6,0.550,34.1,79.9,114,75.3,5.62,794,4.48,6.22,536.734,2727.59,0.029,0.0485,36.8204,6.47,6.97,37.1,32.8,0.817,257,210,76,0.85,0.373,0.0428,0.0428,0.976,1034,1034,15,1,153,5.8,116.9,114.2,35.9,37.0,115,37.2,112,38.4,88.9,40.3,37.7,44.5,4.29,4.29,3.57,-2.67,0.032582,1.37491039,0.205400,4.76774029
217.00,1,186.980,1,186.980,74.306,95.717,5311.256,12.048,0.9733,77.0,-0.090,75.5,0.550,34.1,102.6,114,75.2,5.61,793,4.55,6.21,536.734,2286.97,0.029,0.0485,36.8204,6.47,4.53,37.1,32.8,0.815,254,207,117,1.14,1.079,0.0428,0.0428,0.974,1034,1034,15,1,116,36.3,114.2,111.4,38.2,39.3,114,38.3,111,39.4,88.9,40.3,37.7,44.5,4.29,4.29,3.95,-2.93,0.032586,1.37776142,0.205448,4.77752958
218.00,1,187.980,1,187.980,74.293,95.541,5310.299,12.048,0.9734,77.0,-0.033,75.5,0.551,34.1,110.0,114,75.0,5.61,793,4.63,6.21,536.734,2242.90,0.029,0.0485,36.8204,6.47,4.92,37.1,32.8,0.818,258,211,132,1.20,1.404,0.0428,0.0428,0.973,1033,1033,15,1,115,36.9,112.7,109.9,39.3,40.3,112,39.4,110,40.5,89.0,40.2,37.7,44.5,4.29,4.29,5.09,-3.46,0.032587,1.38061383,0.205472,4.78732441
219.00,1,188.980,1,188.980,74.271,95.382,5309.344,12.048,0.9735,77.0,0.149,75.5,0.551,34.1,92.9,113,74.9,5.61,793,4.57,6.20,536.734,2260.81,0.029,0.0485,36.8323,6.47,5.41,37.1,32.8,0.818,258,211,100,1.00,0.819,0.0428,0.0428,0.972,1033,1033,15,1,120,32.8,111.3,108.6,40.3,41.2,111,40.5,108,41.5,89.0,40.2,37.7,44.5,4.29,4.29,4.23,-2.73,0.032588,1.38346771,0.205504,4.79712414
220.00,1,189.980,1,189.980,74.246,95.254,5308.391,12.048,0.9734,76.9,-0.041,75.5,0.551,34.1,79.2,113,74.7,5.60,793,4.48,6.20,536.846,2680.36,0.029,0.0485,36.8323,6.47,7.60,37.1,32.8,0.817,257,210,75,0.85,0.346,0.0428,0.0428,0.971,1033,1033,15,1,160,0.3,117.0,114.3,35.6,36.7,115,37.5,112,38.7,89.0,40.2,37.7,44.5,4.29,4.29,3.67,-3.55,0.032589,1.38632043,0.205549,4.80692597
221.00,1,190.980,1,190.980,74.201,95.101,5307.438,12.048,0.9733,77.0,-0.090,75.4,0.551,34.1,102.1,113,74.6,5.60,793,4.55,6.19,536.846,2722.45,0.029,0.0485,36.8323,6.47,6.93,37.1,32.8,0.815,254,207,116,1.14,1.057,0.0428,0.0428,0.971,1034,1034,15,1,152,6.6,116.9,114.2,35.9,37.0,115,37.2,112,38.4,88.9,40.3,37.7,44.5,4.29,4.29,3.99,-3.13,0.032592,1.38917089,0.205597,4.81672993
222.00,1,191.980,1,191.980,74.184,95.064,5306.482,12.048,0.9733,77.0,-0.033,75.4,0.551,34.1,109.7,113,74.6,5.59,793,4.63,6.19,536.846,2279.99,0.029,0.0485,36.8323,6.47,4.59,37.1,32.8,0.818,258,211,131,1.20,1.386,0.0428,0.0428,0.971,1034,1034,15,1,116,36.4,114.1,111.3,38.2,39.4,114,38.3,111,39.5,88.9,40.3,37.7,44.5,4.30,4.30,5.13,-3.73,0.032595,1.39202187,0.205621,4.82653778
223.00,1,192.980,1,192.980,74.172,95.047,5305.526,12.048,0.9734,77.0,0.149,75.4,0.551,34.1,92.7,113,74.5,5.59,793,4.57,6.19,536.846,2242.90,0.029,0.0485,36.8323,6.47,4.92,37.1,32.8,0.818,258,211,100,1.00,0.810,0.0428,0.0428,0.971,1033,1033,15,1,115,36.9,112.6,109.8,39.3,40.4,112,39.5,110,40.6,88.9,40.2,37.7,44.5,4.30,4.30,4.24,-2.78,0.032597,1.39487411,0.205654,4.83634797
224.00,1,193.980,1,193.980,74.166,95.037,5304.573,12.048,0.9734,76.9,-0.041,75.3,0.551,34.1,79.2,113,74.5,5.59,792,4.48,6.19,536.846,2266.88,0.029,0.0485,36.8461,6.47,5.49,37.1,32.8,0.817,257,210,75,0.84,0.343,0.0428,0.0428,0.972,1033,1033,15,1,122,30.7,111.3,108.6,40.2,41.2,111,40.5,108,41.5,88.9,40.2,37.7,44.5,4.30,4.30,3.53,-2.30,0.032598,1.39772536,0.205699,4.84615752
225.00,1,194.980,1,194.980,74.169,95.058,5303.620,12.048,0.9734,77.0,-0.090,75.3,0.551,34.1,102.1,113,74.5,5.58,792,4.55,6.18,536.980,2686.96,0.029,0.0485,36.8461,6.47,7.62,37.1,32.8,0.815,254,207,116,1.14,1.055,0.0429,0.0429,0.973,1033,1033,15,1,160,0.3,117.1,114.4,35.5,36.7,115,37.4,112,38.6,88.9,40.3,37.7,44.5,4.30,4.30,4.08,-3.97,0.032599,1.40057463,0.205747,4.85596675
226.00,1,195.980,1,195.980,74.177,95.074,5302.664,12.048,0.9732,77.0,-0.033,75.2,0.551,34.1,109.7,113,74.6,5.58,792,4.63,6.18,536.980,2717.08,0.029,0.0485,36.8461,6.47,6.88,37.1,32.8,0.818,258,211,132,1.20,1.386,0.0429,0.0429,0.973,1034,1034,15,1,151,7.4,116.7,114.0,36.0,37.1,115,37.3,112,38.5,88.8,40.3,37.7,44.5,4.30,4.30,5.18,-3.98,0.032601,1.40342470,0.205772,4.86577793
227.00,1,196.980,1,196.980,74.188,95.090,5301.709,12.048,0.9733,77.0,0.149,75.2,0.551,34.1,92.8,113,74.6,5.58,792,4.56,6.18,536.980,2274.07,0.029,0.0485,36.8461,6.47,4.64,37.1,32.8,0.818,258,211,100,1.00,0.813,0.0429,0.0429,0.974,1034,1034,15,1,115,36.5,114.0,111.2,38.3,39.4,114,38.4,111,39.6,88.8,40.3,37.7,44.5,4.30,4.30,4.25,-3.00,0.032604,1.40627631,0.205805,4.87559009
228.00,1,197.980,1,197.980,74.201,95.103,5300.755,12.048,0.9733,76.9,-0.041,75.2,0.550,34.1,79.3,113,74.6,5.58,792,4.47,6.18,536.980,2242.90,0.029,0.0485,36.8461,6.47,4.92,37.1,32.8,0.817,257,210,75,0.84,0.345,0.0429,0.0429,0.974,1033,1033,15,1,115,36.9,112.5,109.8,39.4,40.4,112,39.5,110,40.6,88.9,40.3,37.7,44.5,4.30,4.30,3.53,-2.31,0.032607,1.40912722,0.205851,4.88540081
229.00,1,198.980,1,198.980,74.233,95.112,5299.802,12.048,0.9734,77.0,-0.090,75.1,0.550,34.1,102.1,113,74.6,5.58,792,4.54,6.18,536.980,2273.50,0.029,0.0485,36.8732,6.47,5.57,37.1,32.8,0.815,254,207,116,1.14,1.055,0.0429,0.0429,0.974,1033,1033,15,1,125,28.2,111.3,108.7,40.2,41.2,111,40.5,108,41.5,88.9,40.2,37.7,44.5,4.30,4.30,3.87,-2.68,0.032608,1.41197640,0.205900,4.89521082
230.00,1,199.980,1,199.980,74.251,95.120,5298.846,12.048,0.9733,77.0,-0.033,75.1,0.550,34.1,109.7,113,74.6,5.58,792,4.62,6.18,537.145,2693.36,0.029,0.0485,36.8732,6.47,7.64,37.1,32.8,0.818,258,211,132,1.20,1.387,0.0429,0.0429,0.974,1033,1033,15,1,160,0.3,117.2,114.4,35.5,36.7,115,37.4,112,38.6,88.9,40.3,37.7,44.5,4.30,4.30,5.28,-4.83,0.032608,1.41482654,0.205926,4.90502273
231.00,1,200.980,1,200.980,74.270,95.130,5297.890,12.048,0.9732,76.9,0.149,75.1,0.550,34.1,92.9,113,74.6,5.58,791,4.56,6.18,537.145,2711.47,0.029,0.0485,36.8732,6.47,6.84,37.1,32.8,0.818,258,211,101,1.00,0.814,0.0429,0.0429,0.974,1034,1034,15,1,150,8.2,116.6,113.9,36.1,37.2,115,37.3,112,38.6,88.8,40.4,37.7,44.5,4.30,4.30,4.27,-3.20,0.032611,1.41767827,0.205959,4.91483578
232.00,1,201.980,1,201.980,74.289,95.135,5296.937,12.048,0.9732,76.9,-0.041,75.1,0.550,34.1,79.3,113,74.7,5.58,791,4.47,6.17,537.145,2269.08,0.029,0.0485,36.8732,6.47,4.68,37.1,32.8,0.817,258,210,76,0.84,0.346,0.0429,0.0429,0.974,1034,1034,15,1,115,36.6,114.0,111.2,38.3,39.4,114,38.4,111,39.6,88.8,40.3,37.7,44.5,4.30,4.30,3.54,-2.49,0.032615,1.42052935,0.206005,4.92464772
233.00,1,202.980,1,202.980,74.329,95.119,5295.984,12.048,0.9733,77.0,-0.090,75.0,0.550,34.1,102.1,113,74.7,5.58,791,4.54,6.17,537.145,2242.90,0.029,0.0485,36.8732,6.47,4.92,37.1,32.8,0.815,254,207,116,1.13,1.054,0.0429,0.0429,0.975,1033,1033,15,1,115,36.9,112.6,109.8,39.4,40.4,112,39.5,110,40.6,88.9,40.2,37.7,44.5,4.31,4.31,3.90,-2.70,0.032617,1.42337875,0.206055,4.93445934
234.00,1,203.980,1,203.980,74.349,95.123,5295.028,12.048,0.9734,77.0,-0.033,75.0,0.550,34.1,109.7,113,74.7,5.58,791,4.62,6.17,537.145,2288.04,0.029,0.0485,36.8949,6.47,5.70,37.1,32.8,0.818,258,211,132,1.19,1.385,0.0429,0.0429,0.974,1033,1033,15,1,132,22.8,111.3,108.7,40.2,41.1,111,40.5,108,41.5,88.9,40.2,37.7,44.5,4.31,4.31,5.06,-3.45,0.032617,1.42622916,0.206081,4.94427322
235.00,1,204.980,1,204.980,74.370,95.126,5294.072,12.097,0.9733,76.9,0.149,75.0,0.550,34.1,92.9,113,74.7,5.58,791,4.55,6.17,537.294,2705.48,0.029,0.0485,36.8949,6.50,7.67,37.1,32.8,0.818,258,211,101,1.00,0.813,0.0429,0.0429,0.974,1033,1033,15,1,160,0.3,117.3,114.6,35.4,36.6,115,37.3,112,38.5,88.9,40.3,37.7,44.5,4.31,4.31,4.38,-4.06,0.032618,1.42908117,0.206115,4.95408859
236.00,1,205.980,1,205.980,74.392,95.131,5293.119,12.097,0.9732,76.9,-0.041,75.0,0.550,34.1,79.3,113,74.7,5.58,791,4.46,6.17,537.294,2699.52,0.029,0.0485,36.8949,6.50,6.74,37.1,32.8,0.817,258,210,76,0.84,0.346,0.0429,0.0429,0.974,1034,1034,15,1,148,9.9,116.5,113.8,36.2,37.3,115,37.4,112,38.6,88.8,40.4,37.7,44.5,4.31,4.31,3.56,-2.66,0.032621,1.43193248,0.206161,4.96390313
237.00,1,206.980,1,206.980,74.435,95.130,5292.166,12.097,0.9732,77.0,-0.090,75.0,0.550,34.1,102.1,113,74.7,5.58,791,4.53,6.17,537.294,2261.39,0.029,0.0485,36.8949,6.50,4.75,37.1,32.8,0.815,254,207,116,1.13,1.052,0.0429,0.0429,0.974,1033,1033,15,1,115,36.7,113.9,111.2,38.3,39.4,114,38.4,111,39.6,88.8,40.3,37.7,44.5,4.31,4.31,3.94,-2.91,0.032624,1.43478209,0.206211,4.97371761
238.00,1,207.980,1,207.980,74.457,95.109,5291.210,12.097,0.9733,77.0,-0.033,74.9,0.550,34.1,109.7,113,74.7,5.58,790,4.61,6.17,537.294,2242.89,0.029,0.0485,36.8949,6.50,4.92,37.1,32.8,0.818,258,211,132,1.19,1.383,0.0429,0.0429,0.974,1033,1033,15,1,115,36.9,112.5,109.8,39.4,40.5,112,39.6,110,40.7,88.9,40.2,37.7,44.5,4.31,4.31,5.09,-3.45,0.032625,1.43763271,0.206238,4.98353455
239.00,1,208.980,1,208.980,74.479,95.113,5290.255,12.097,0.9734,76.9,0.149,74.9,0.550,34.1,92.8,113,74.7,5.58,790,4.55,6.17,537.294,2303.92,0.029,0.0485,36.8878,6.50,5.83,37.1,32.8,0.818,258,211,101,1.00,0.811,0.0429,0.0429,0.974,1033,1033,15,1,138,17.7,111.5,108.8,40.1,41.1,111,40.5,108,41.5,88.9,40.2,37.7,44.5,4.31,4.31,4.25,-2.88,0.032626,1.44048495,0.206272,4.99335313
240.00,1,209.980,1,209.980,74.501,95.116,5289.301,12.097,0.9733,76.9,-0.041,74.9,0.550,34.1,79.3,113,74.7,5.58,790,4.46,6.17,537.468,2716.85,0.029,0.0485,36.8878,6.50,7.70,37.1,32.8,0.817,258,211,76,0.84,0.345,0.0429,0.0429,0.974,1033,1033,15,1,160,0.3,117.5,114.7,35.3,36.4,115,37.2,112,38.4,88.9,40.3,37.7,44.5,4.31,4.31,3.66,-3.46,0.032627,1.44333647,0.206318,5.00317098
241.00,1,210.980,1,210.980,74.547,95.121,5288.348,12.097,0.9732,77.0,-0.090,74.9,0.550,34.1,102.1,113,74.7,5.58,790,4.53,6.16,537.468,2686.67,0.029,0.0485,36.8878,6.50,6.65,37.1,32.8,0.815,254,207,116,1.13,1.051,0.0429,0.0429,0.973,1034,1034,15,1,146,11.8,116.4,113.7,36.3,37.4,115,37.4,112,38.6,88.8,40.4,37.7,44.5,4.31,4.31,3.99,-3.11,0.032630,1.44618623,0.206368,5.01298881
242.00,1,211.980,1,211.980,74.570,95.120,5287.392,12.097,0.9732,77.0,-0.033,74.9,0.550,34.1,109.7,113,74.7,5.58,790,4.61,6.16,537.468,2255.93,0.029,0.0485,36.8878,6.50,4.80,37.1,32.8,0.818,259,211,132,1.19,1.382,0.0429,0.0429,0.973,1033,1033,15,1,115,36.8,113.9,111.1,38.4,39.5,114,38.5,111,39.6,88.8,40.3,37.7,44.5,4.32,4.32,5.13,-3.69,0.032632,1.44903698,0.206395,5.02280917
243.00,1,212.980,1,212.980,74.593,95.117,5286.437,12.097,0.9733,76.9,0.149,74.9,0.550,34.1,92.8,113,74.7,5.58,790,4.54,6.16,537.468,2242.89,0.029,0.0485,36.8878,6.50,4.92,37.1,32.8,0.818,259,211,101,1.00,0.810,0.0429,0.0429,0.973,1033,1033,15,1,115,36.9,112.4,109.7,39.5,40.5,112,39.7,109,40.7,88.9,40.3,37.7,44.5,4.32,4.32,4.23,-2.77,0.032634,1.45188938,0.206429,5.03263122
244.00,1,213.980,1,213.980,74.616,95.109,5285.484,12.097,0.9734,76.9,-0.041,74.8,0.550,34.1,79.3,113,74.7,5.58,789,4.46,6.16,537.468,2320.77,0.029,0.0485,36.8766,6.50,5.95,37.1,32.8,0.817,258,211,76,0.84,0.345,0.0429,0.0429,0.973,1033,1033,15,1,144,13.3,111.7,109.0,39.9,40.9,111,40.5,108,41.5,88.9,40.2,37.6,44.5,4.32,4.32,3.55,-2.52,0.032634,1.45474108,0.206475,5.04245257
245.00,1,214.980,1,214.980,74.663,95.106,5284.531,12.097,0.9733,77.0,-0.090,74.8,0.549,34.1,102.0,113,74.7,5.59,789,4.52,6.16,537.657,2727.43,0.029,0.0485,36.8766,6.50,7.72,37.1,32.8,0.815,254,207,116,1.13,1.049,0.0430,0.0430,0.973,1033,1033,15,1,160,0.3,117.7,114.9,35.1,36.3,115,37.0,113,38.3,88.8,40.3,37.6,44.5,4.32,4.32,4.07,-3.87,0.032636,1.45759100,0.206525,5.05227391
246.00,1,215.980,1,215.980,74.687,95.107,5283.575,12.097,0.9732,77.0,-0.033,74.8,0.549,34.1,109.6,113,74.7,5.59,789,4.60,6.16,537.657,2672.98,0.029,0.0485,36.8766,6.50,6.55,37.1,32.8,0.818,259,212,132,1.19,1.380,0.0430,0.0430,0.973,1034,1034,15,1,143,13.7,116.3,113.5,36.5,37.6,115,37.4,112,38.7,88.8,40.4,37.6,44.5,4.32,4.32,5.17,-3.95,0.032638,1.46044184,0.206552,5.06209777
247.00,1,216.980,1,216.980,74.711,95.107,5282.620,12.097,0.9732,76.9,0.149,74.8,0.549,34.1,92.9,113,74.7,5.59,789,4.54,6.16,537.657,2252.07,0.029,0.0485,36.8766,6.50,4.83,37.1,32.8,0.818,259,212,101,1.00,0.809,0.0430,0.0430,0.973,1033,1033,15,1,115,36.8,113.8,111.0,38.5,39.6,114,38.6,111,39.7,88.8,40.3,37.6,44.5,4.32,4.32,4.25,-2.96,0.032640,1.46329428,0.206586,5.07192330
248.00,1,217.980,1,217.980,74.735,95.106,5281.666,12.097,0.9733,76.9,-0.041,74.8,0.549,34.1,79.3,113,74.7,5.59,789,4.45,6.16,537.657,2242.89,0.029,0.0485,36.8766,6.50,4.92,37.1,32.8,0.817,258,211,76,0.84,0.344,0.0430,0.0430,0.972,1033,1033,15,1,115,36.9,112.4,109.7,39.5,40.6,112,39.7,109,40.7,88.9,40.3,37.6,44.5,4.32,4.32,3.53,-2.29,0.032642,1.46614606,0.206633,5.08174811
249.00,1,218.980,1,218.980,74.784,95.096,5280.713,12.097,0.9733,77.0,-0.090,74.7,0.549,34.1,102.0,113,74.7,5.59,789,4.52,6.15,537.657,2338.32,0.029,0.0485,36.8767,6.50,6.06,37.1,32.8,0.815,254,207,116,1.13,1.047,0.0430,0.0430,0.972,1033,1033,15,1,148,9.8,112.0,109.3,39.7,40.7,111,40.4,108,41.4,88.9,40.2,37.6,44.5,4.32,4.32,3.91,-2.99,0.032643,1.46899610,0.206683,5.09157289
250.00,1,219.980,1,219.980,74.808,95.099,5279.757,12.097,0.9732,77.0,-0.033,74.7,0.549,34.1,109.6,113,74.7,5.59,789,4.60,6.15,537.857,2737.19,0.029,0.0485,36.8767,6.51,7.74,37.1,32.8,0.818,259,212,132,1.19,1.378,0.0430,0.0430,0.972,1033,1033,15,1,160,0.3,117.7,115.0,35.1,36.3,115,37.0,113,38.2,88.8,40.3,37.6,44.5,4.32,4.32,5.27,-4.71,0.032643,1.47184705,0.206710,5.10140016
251.00,1,220.980,1,220.980,74.833,95.101,5278.802,12.097,0.9732,76.9,0.149,74.7,0.549,34.1,92.9,113,74.7,5.59,788,4.53,6.15,537.857,2658.45,0.029,0.0485,36.8767,6.51,6.44,37.1,32.8,0.818,259,212,101,1.00,0.809,0.0430,0.0430,0.972,1034,1034,15,1,141,15.6,116.1,113.4,36.6,37.7,115,37.5,112,38.7,88.8,40.4,37.6,44.5,4.32,4.32,4.27,-3.18,0.032645,1.47469957,0.206744,5.11122907
252.00,1,221.980,1,221.980,74.858,95.101,5277.849,12.097,0.9732,76.9,-0.041,74.7,0.549,34.1,79.4,113,74.7,5.59,788,4.45,6.15,537.857,2249.35,0.029,0.0485,36.8767,6.51,4.86,37.1,32.8,0.817,258,211,76,0.84,0.344,0.0430,0.0430,0.972,1033,1033,15,1,115,36.9,113.8,111.0,38.5,39.6,114,38.6,111,39.7,88.8,40.3,37.6,44.5,4.33,4.33,3.54,-2.45,0.032648,1.47755140,0.206791,5.12105728
253.00,1,222.980,1,222.980,74.907,95.088,5276.896,12.097,0.9733,77.0,-0.090,74.7,0.549,34.1,102.0,113,74.7,5.59,788,4.51,6.15,537.857,2242.89,0.029,0.0485,36.8767,6.51,4.92,37.1,32.8,0.815,254,207,116,1.13,1.045,0.0430,0.0430,0.972,1033,1033,15,1,115,36.9,112.4,109.7,39.5,40.6,112,39.7,109,40.8,88.9,40.2,37.6,44.5,4.33,4.33,3.90,-2.69,0.032650,1.48040153,0.206841,5.13088545
254.00,1,223.980,1,223.980,74.932,95.088,5275.940,12.097,0.9733,77.0,-0.033,74.7,0.549,34.1,109.6,113,74.7,5.59,788,4.60,6.15,538.070,2356.36,0.029,0.0485,36.8881,6.51,6.17,37.1,32.8,0.818,259,212,132,1.19,1.376,0.0430,0.0430,0.971,1033,1033,15,1,151,7.1,112.2,109.6,39.5,40.5,111,40.4,108,41.4,88.9,40.2,37.6,44.5,4.33,4.33,5.12,-3.84,0.032649,1.48325260,0.206868,5.14071610
255.00,1,224.980,1,224.980,74.957,95.089,5274.986,12.097,0.9733,76.9,0.149,74.6,0.549,34.1,92.9,113,74.7,5.59,788,4.53,6.15,538.070,2746.04,0.029,0.0485,36.8881,6.51,7.75,37.1,32.8,0.818,259,212,101,0.99,0.807,0.0430,0.0430,0.971,1033,1033,15,1,160,0.3,117.8,115.1,35.0,36.2,116,36.9,113,38.2,88.9,40.3,37.6,44.5,4.33,4.33,4.36,-3.90,0.032650,1.48610524,0.206903,5.15054839
256.00,1,225.980,1,225.980,74.982,95.094,5274.032,12.097,0.9732,76.9,-0.041,74.6,0.549,34.1,79.4,113,74.7,5.60,788,4.44,6.15,538.070,2643.14,0.029,0.0485,36.8881,6.51,6.34,37.1,32.8,0.817,258,211,76,0.84,0.344,0.0430,0.0430,0.971,1034,1034,15,1,139,17.6,116.0,113.3,36.7,37.8,115,37.5,112,38.7,88.8,40.4,37.6,44.5,4.33,4.33,3.56,-2.64,0.032653,1.48895715,0.206950,5.16037996
257.00,1,226.980,1,226.980,75.032,95.096,5273.080,12.097,0.9732,77.0,-0.090,74.6,0.549,34.1,102.0,113,74.7,5.60,788,4.51,6.15,538.070,2247.43,0.029,0.0485,36.8881,6.51,4.88,37.1,32.8,0.815,254,207,116,1.13,1.043,0.0430,0.0430,0.971,1033,1033,15,1,115,36.9,113.8,111.0,38.5,39.6,114,38.6,111,39.7,88.8,40.3,37.6,44.5,4.33,4.33,3.94,-2.87,0.032656,1.49180734,0.207000,5.17021152
258.00,1,227.980,1,227.980,75.057,95.077,5272.124,12.097,0.9733,77.0,-0.029,74.6,0.549,34.1,109.6,113,74.8,5.60,787,4.59,6.15,538.070,2242.89,0.029,0.0485,36.8881,6.51,4.92,37.1,32.8,0.818,259,212,132,1.19,1.374,0.0430,0.0430,0.971,1033,1033,15,1,115,36.9,112.3,109.6,39.6,40.6,112,39.8,109,40.8,88.9,40.2,37.6,44.5,4.33,4.33,5.08,-3.43,0.032657,1.49465851,0.207027,5.18004557
259.00,1,228.980,1,228.980,75.082,95.082,5271.169,12.097,0.9733,76.9,0.172,74.6,0.549,34.1,92.8,113,74.7,5.60,787,4.53,6.14,538.241,2374.75,0.029,0.0486,36.8969,6.51,6.27,37.1,32.8,0.818,259,212,101,0.99,0.806,0.0430,0.0430,0.970,1033,1033,15,1,154,5.1,112.4,109.8,39.3,40.3,111,40.3,109,41.3,88.9,40.2,37.6,44.5,4.33,4.33,4.31,-3.32,0.032657,1.49751129,0.207062,5.18988129
260.00,1,229.980,1,229.980,75.107,95.085,5270.216,12.097,0.9733,76.9,-0.046,74.6,0.549,34.1,79.4,113,74.7,5.60,787,4.44,6.14,538.241,2754.00,0.029,0.0486,36.8969,6.51,7.76,37.1,32.8,0.817,258,211,76,0.84,0.343,0.0430,0.0430,0.970,1033,1033,15,1,160,0.3,117.9,115.2,35.0,36.2,116,36.9,113,38.1,88.9,40.3,37.6,44.5,4.33,4.33,3.63,-3.28,0.032658,1.50036333,0.207109,5.19971629
261.00,1,230.980,1,230.980,75.157,95.091,5269.263,12.097,0.9732,77.0,-0.090,74.5,0.549,34.1,102.0,113,74.8,5.60,787,4.50,6.14,538.241,2627.09,0.029,0.0486,36.8969,6.51,6.23,37.1,32.8,0.815,255,207,116,1.13,1.043,0.0430,0.0430,0.970,1034,1034,15,1,136,19.5,115.9,113.2,36.8,37.9,115,37.5,112,38.8,88.8,40.4,37.6,44.5,4.34,4.34,3.99,-3.09,0.032661,1.50321362,0.207159,5.20955128
262.00,1,231.980,1,231.980,75.182,95.090,5268.307,12.097,0.9732,77.0,-0.029,74.5,0.549,34.1,109.6,113,74.8,5.60,787,4.59,6.14,538.241,2246.08,0.029,0.0486,36.8969,6.51,4.89,37.1,32.8,0.818,259,212,132,1.19,1.372,0.0430,0.0430,0.970,1033,1033,15,1,115,36.9,113.7,110.9,38.6,39.7,114,38.7,111,39.8,88.8,40.3,37.6,44.5,4.34,4.34,5.13,-3.65,0.032663,1.50606489,0.207187,5.21938881
263.00,1,232.980,1,232.980,75.207,95.069,5267.353,12.097,0.9733,76.9,0.172,74.5,0.549,34.1,92.8,113,74.8,5.60,787,4.52,6.14,538.241,2242.89,0.029,0.0486,36.8969,6.51,4.92,37.1,32.8,0.818,259,212,101,0.99,0.805,0.0431,0.0431,0.970,1033,1033,15,1,115,36.9,112.3,109.6,39.7,40.7,112,39.8,109,40.9,88.9,40.3,37.6,44.5,4.34,4.34,4.23,-2.74,0.032664,1.50891778,0.207222,5.22922802
264.00,1,233.980,1,233.980,75.232,95.074,5266.400,12.097,0.9733,76.9,-0.046,74.5,0.549,34.1,79.4,113,74.8,5.60,786,4.43,6.14,538.422,2393.39,0.029,0.0485,36.8950,6.51,6.37,37.1,32.8,0.817,259,211,76,0.84,0.342,0.0431,0.0431,0.970,1033,1033,15,1,155,3.7,112.8,110.1,39.0,40.1,111,40.2,109,41.2,88.9,40.2,37.6,44.5,4.34,4.34,3.61,-2.96,0.032665,1.51176998,0.207269,5.23906653
265.00,1,234.980,1,234.980,75.281,95.082,5265.447,12.097,0.9732,77.0,-0.090,74.5,0.549,34.1,101.9,113,74.8,5.61,786,4.50,6.14,538.422,2761.05,0.029,0.0485,36.8950,6.51,7.76,37.1,32.8,0.815,255,208,116,1.13,1.041,0.0431,0.0431,0.969,1033,1033,15,1,160,0.3,118.1,115.3,34.9,36.1,116,36.8,113,38.0,88.8,40.3,37.6,44.5,4.34,4.34,4.06,-3.68,0.032666,1.51462041,0.207319,5.24890504
266.00,1,235.980,1,235.980,75.306,95.083,5264.491,12.097,0.9732,77.0,-0.029,74.5,0.549,34.1,109.6,113,74.8,5.61,786,4.58,6.14,538.422,2610.33,0.029,0.0485,36.8950,6.51,6.12,37.1,32.8,0.818,259,212,132,1.19,1.372,0.0431,0.0431,0.969,1034,1034,15,1,134,21.3,115.8,113.0,37.0,38.1,115,37.6,112,38.8,88.8,40.4,37.6,44.5,4.34,4.34,5.17,-3.92,0.032668,1.51747178,0.207346,5.25874608
267.00,1,236.980,1,236.980,75.331,95.082,5263.537,12.097,0.9732,76.9,0.172,74.4,0.548,34.1,92.9,113,74.8,5.61,786,4.52,6.14,538.422,2245.14,0.029,0.0485,36.8950,6.51,4.90,37.1,32.8,0.817,259,212,101,0.99,0.805,0.0431,0.0431,0.969,1033,1033,15,1,115,36.9,113.6,110.8,38.6,39.8,113,38.7,111,39.9,88.8,40.3,37.5,44.5,4.34,4.34,4.25,-2.93,0.032671,1.52032478,0.207381,5.26858883
268.00,1,237.980,1,237.980,75.355,95.079,5262.584,12.097,0.9733,76.9,-0.046,74.4,0.548,34.1,79.4,113,74.8,5.61,786,4.43,6.14,538.422,2242.89,0.029,0.0485,36.8950,6.51,4.92,37.1,32.8,0.817,259,211,76,0.84,0.342,0.0431,0.0431,0.969,1033,1033,15,1,115,36.9,112.2,109.5,39.7,40.7,112,39.9,109,40.9,88.9,40.3,37.5,44.5,4.34,4.34,3.53,-2.28,0.032672,1.52317713,0.207428,5.27843093
269.00,1,238.980,1,238.980,75.403,95.067,5261.631,12.097,0.9733,77.0,-0.090,74.4,0.548,34.1,101.9,113,74.8,5.61,786,4.50,6.13,538.614,2412.18,0.029,0.0485,36.8861,6.52,6.47,37.1,32.8,0.815,255,208,116,1.12,1.039,0.0431,0.0431,0.969,1033,1033,15,1,157,2.7,113.1,110.5,38.8,39.8,112,40.1,109,41.1,88.9,40.3,37.5,44.5,4.34,4.34,3.98,-3.43,0.032672,1.52602774,0.207479,5.28827305
270.00,1,239.980,1,239.980,75.427,95.069,5260.676,12.097,0.9732,77.0,-0.029,74.4,0.548,34.1,109.5,113,74.8,5.61,786,4.58,6.13,538.614,2767.16,0.029,0.0485,36.8861,6.52,7.75,37.1,32.8,0.818,259,212,132,1.19,1.370,0.0431,0.0431,0.969,1033,1033,15,1,160,0.3,118.1,115.4,34.9,36.1,116,36.8,113,38.0,88.8,40.3,37.5,44.5,4.34,4.34,5.25,-4.51,0.032673,1.52887926,0.207507,5.29811771
271.00,1,240.980,1,240.980,75.452,95.069,5259.721,12.097,0.9731,76.9,0.172,74.4,0.548,34.1,92.8,113,74.8,5.61,785,4.51,6.13,538.614,2592.91,0.029,0.0485,36.8861,6.52,6.01,37.1,32.8,0.817,259,212,101,0.99,0.803,0.0431,0.0431,0.968,1034,1034,15,1,132,23.0,115.6,112.9,37.1,38.2,115,37.7,112,38.9,88.8,40.4,37.5,44.5,4.34,4.34,4.27,-3.15,0.032676,1.53173235,0.207541,5.30796407
272.00,1,241.980,1,241.980,75.476,95.069,5258.768,12.097,0.9732,76.9,-0.046,74.4,0.548,34.1,79.4,113,74.8,5.61,785,4.43,6.13,538.614,2244.47,0.029,0.0485,36.8861,6.52,4.90,37.1,32.8,0.817,259,211,76,0.84,0.341,0.0431,0.0431,0.968,1033,1033,15,1,115,36.9,113.6,110.8,38.7,39.8,113,38.8,111,39.9,88.8,40.3,37.5,44.5,4.35,4.35,3.54,-2.43,0.032678,1.53458476,0.207588,5.31780977
273.00,1,242.980,1,242.980,75.524,95.060,5257.816,12.097,0.9733,77.0,-0.090,74.3,0.548,34.1,101.9,113,74.8,5.61,785,4.49,6.13,538.614,2242.89,0.029,0.0485,36.8861,6.52,4.92,37.1,32.8,0.815,255,208,116,1.12,1.037,0.0431,0.0431,0.968,1033,1033,15,1,115,36.9,112.2,109.5,39.7,40.7,112,39.9,109,40.9,88.9,40.2,37.5,44.5,4.35,4.35,3.90,-2.66,0.032680,1.53743547,0.207639,5.32765547
274.00,1,243.980,1,243.980,75.548,95.058,5256.860,12.097,0.9733,77.0,-0.029,74.3,0.548,34.1,109.5,113,74.8,5.61,785,4.57,6.13,538.820,2431.06,0.029,0.0485,36.8865,6.52,6.56,37.1,32.8,0.818,260,212,132,1.18,1.368,0.0431,0.0431,0.968,1033,1033,15,1,158,2.0,113.4,110.8,38.6,39.6,112,40.0,109,41.0,88.9,40.3,37.5,44.5,4.35,4.35,5.20,-4.30,0.032679,1.54028713,0.207667,5.33750369
275.00,1,244.980,1,244.980,75.573,95.061,5255.906,12.097,0.9732,76.9,0.172,74.3,0.548,34.1,92.8,113,74.8,5.61,785,4.51,6.13,538.820,2772.32,0.029,0.0485,36.8865,6.52,7.74,37.1,32.8,0.817,260,212,101,0.99,0.802,0.0431,0.0431,0.968,1033,1033,15,1,160,0.3,118.1,115.4,34.9,36.1,116,36.8,113,38.0,88.8,40.3,37.5,44.5,4.35,4.35,4.33,-3.67,0.032680,1.54314035,0.207702,5.34735360
276.00,1,245.980,1,245.980,75.597,95.062,5254.953,12.097,0.9731,76.9,-0.046,74.3,0.548,34.1,79.4,113,74.8,5.62,785,4.42,6.13,538.820,2574.88,0.029,0.0485,36.8865,6.52,5.90,37.1,32.8,0.816,259,211,76,0.84,0.341,0.0431,0.0431,0.968,1034,1034,15,1,130,24.6,115.5,112.8,37.2,38.3,115,37.7,112,38.9,88.8,40.4,37.5,44.5,4.35,4.35,3.56,-2.61,0.032683,1.54599285,0.207749,5.35720282
277.00,1,246.980,1,246.980,75.646,95.062,5254.000,12.097,0.9732,76.9,-0.090,74.3,0.548,34.1,101.9,113,74.8,5.62,785,4.49,6.13,538.820,2244.00,0.029,0.0485,36.8865,6.52,4.91,37.1,32.8,0.815,255,208,116,1.12,1.035,0.0431,0.0431,0.967,1033,1033,15,1,115,36.9,113.6,110.8,38.7,39.8,113,38.8,111,39.9,88.8,40.3,37.5,44.5,4.35,4.35,3.94,-2.84,0.032686,1.54884364,0.207799,5.36705207
278.00,1,247.980,1,247.980,75.670,95.050,5253.045,12.097,0.9733,77.0,-0.029,74.2,0.548,34.1,109.5,113,74.8,5.62,784,4.57,6.12,538.820,2242.89,0.029,0.0485,36.8865,6.52,4.92,37.1,32.8,0.817,260,212,132,1.18,1.366,0.0431,0.0431,0.967,1033,1033,15,1,115,36.9,112.2,109.5,39.8,40.8,112,40.0,109,41.0,88.9,40.2,37.5,44.5,4.35,4.35,5.08,-3.40,0.032686,1.55169540,0.207827,5.37690383
279.00,1,248.980,1,248.980,75.694,95.049,5252.090,12.097,0.9733,76.9,0.172,74.2,0.548,34.1,92.8,113,74.8,5.62,784,4.50,6.12,539.040,2449.91,0.029,0.0486,36.8972,6.52,6.66,37.1,32.8,0.817,260,212,101,0.99,0.801,0.0431,0.0431,0.967,1033,1033,15,1,158,1.4,113.7,111.0,38.3,39.4,112,39.8,109,40.9,88.9,40.2,37.5,44.5,4.35,4.35,4.37,-3.75,0.032686,1.55454877,0.207863,5.38675726
280.00,1,249.980,1,249.980,75.718,95.050,5251.138,12.097,0.9732,76.9,-0.046,74.2,0.548,34.1,79.4,113,74.8,5.62,784,4.42,6.12,539.040,2776.43,0.029,0.0486,36.8972,6.52,7.72,37.1,32.8,0.816,259,212,76,0.84,0.340,0.0432,0.0432,0.967,1033,1033,15,1,160,0.3,118.2,115.4,34.9,36.1,116,36.7,113,38.0,88.8,40.3,37.5,44.5,4.35,4.35,3.61,-3.03,0.032688,1.55740139,0.207910,5.39661001
281.00,1,250.980,1,250.980,75.767,95.058,5250.185,12.097,0.9731,76.9,-0.090,74.2,0.548,34.1,101.9,113,74.8,5.62,784,4.48,6.12,539.040,2556.30,0.029,0.0486,36.8972,6.52,5.79,37.1,32.8,0.815,255,208,116,1.12,1.034,0.0432,0.0432,0.967,1034,1034,15,1,128,26.1,115.5,112.7,37.2,38.4,115,37.7,112,38.9,88.8,40.4,37.5,44.5,4.35,4.35,3.99,-3.06,0.032691,1.56025226,0.207960,5.40646276
282.00,1,251.980,1,251.980,75.791,95.057,5249.230,12.097,0.9732,77.0,-0.029,74.2,0.548,34.1,109.5,113,74.8,5.62,784,4.57,6.12,539.040,2243.67,0.029,0.0486,36.8972,6.52,4.91,37.1,32.8,0.817,260,212,132,1.18,1.364,0.0432,0.0432,0.967,1033,1033,15,1,115,36.9,113.5,110.7,38.7,39.9,113,38.9,111,40.0,88.8,40.3,37.5,44.5,4.36,4.36,5.13,-3.62,0.032693,1.56310411,0.207988,5.41631806
283.00,1,252.980,1,252.980,75.815,95.039,5248.276,12.097,0.9733,76.9,0.172,74.1,0.548,34.1,92.8,113,74.8,5.62,784,4.50,6.12,539.040,2242.89,0.029,0.0486,36.8972,6.52,4.92,37.1,32.8,0.817,260,212,101,0.99,0.800,0.0432,0.0432,0.967,1033,1033,15,1,115,37.0,112.1,109.4,39.8,40.9,112,40.0,109,41.1,88.9,40.2,37.5,44.5,4.36,4.36,4.24,-2.72,0.032693,1.56595759,0.208024,5.42617504
284.00,1,253.980,1,253.980,75.839,95.043,5247.323,12.097,0.9733,76.9,-0.046,74.1,0.548,34.1,79.4,113,74.8,5.62,783,4.41,6.12,539.218,2468.72,0.029,0.0486,36.9053,6.52,6.75,37.1,32.8,0.816,259,212,76,0.84,0.340,0.0432,0.0432,0.966,1033,1033,15,1,159,1.1,114.0,111.4,38.1,39.1,112,39.6,109,40.7,88.9,40.2,37.5,44.5,4.36,4.36,3.67,-3.33,0.032694,1.56881036,0.208071,5.43603135
285.00,1,254.980,1,254.980,75.887,95.051,5246.371,12.097,0.9732,76.9,-0.090,74.1,0.548,34.1,101.8,113,74.8,5.62,783,4.48,6.12,539.218,2779.53,0.029,0.0486,36.9053,6.52,7.70,37.1,32.8,0.815,255,208,116,1.12,1.032,0.0432,0.0432,0.966,1033,1033,15,1,160,0.3,118.2,115.5,34.8,36.0,116,36.7,113,38.0,88.8,40.3,37.5,44.5,4.36,4.36,4.05,-3.44,0.032695,1.57166136,0.208121,5.44588766
286.00,1,255.980,1,255.980,75.911,95.052,5245.415,12.097,0.9731,77.0,-0.029,74.1,0.548,34.1,109.5,113,74.8,5.63,783,4.56,6.12,539.218,2537.20,0.029,0.0486,36.9053,6.52,5.67,37.1,32.8,0.817,260,212,132,1.18,1.363,0.0432,0.0432,0.966,1034,1034,15,1,127,27.5,115.3,112.6,37.4,38.5,115,37.8,112,39.0,88.8,40.4,37.5,44.5,4.36,4.36,5.17,-3.88,0.032698,1.57451330,0.208149,5.45574653
287.00,1,256.980,1,256.980,75.935,95.051,5244.461,12.097,0.9732,76.9,0.172,74.1,0.548,34.1,92.8,113,74.8,5.63,783,4.50,6.11,539.218,2243.44,0.029,0.0486,36.9053,6.52,4.91,37.1,32.8,0.817,260,212,101,0.99,0.799,0.0432,0.0432,0.966,1033,1033,15,1,115,36.9,113.4,110.7,38.8,39.9,113,38.9,111,40.1,88.8,40.3,37.4,44.5,4.36,4.36,4.25,-2.90,0.032700,1.57736688,0.208185,5.46560712
288.00,1,257.980,1,257.980,75.983,95.465,5243.509,12.097,0.9733,76.9,-0.032,73.8,0.545,34.1,79.2,113,75.0,5.61,783,4.40,6.11,539.218,2242.89,0.029,0.0486,36.9053,6.52,4.92,37.1,32.8,0.816,259,212,76,0.83,0.331,0.0432,0.0432,0.974,1033,1033,15,1,115,37.0,112.1,109.4,39.8,40.9,112,40.0,109,41.1,88.8,40.3,37.4,44.5,4.36,4.36,3.51,-2.24,0.032701,1.58021994,0.208232,5.47546710
289.00,1,258.980,1,258.980,75.995,95.840,5242.556,12.097,0.9733,77.0,0.099,73.3,0.543,34.1,109.0,113,75.7,5.57,783,4.49,6.09,539.405,2487.42,0.029,0.0486,36.9026,6.53,6.84,37.1,32.8,0.815,257,209,130,1.20,1.297,0.0432,0.0432,0.984,1033,1033,15,1,159,0.9,114.4,111.7,37.8,38.9,112,39.4,110,40.5,88.8,40.3,37.4,44.5,4.36,4.36,4.49,-4.11,0.032701,1.58307292,0.208276,5.48532871
290.00,1,259.980,1,259.980,75.986,95.849,5241.600,12.097,0.9731,77.0,0.004,73.1,0.543,34.1,103.8,113,75.9,5.56,783,4.57,6.09,539.405,2781.62,0.029,0.0486,36.9026,6.53,7.67,37.1,32.8,0.818,260,213,121,1.12,1.180,0.0432,0.0432,0.986,1033,1033,15,1,160,0.3,118.2,115.4,34.9,36.1,116,36.8,113,38.1,88.8,40.4,37.4,44.5,4.36,4.36,4.98,-3.98,0.032702,1.58592940,0.208300,5.49519631
291.00,1,260.980,1,260.980,75.957,95.706,5240.646,12.097,0.9731,76.9,0.175,73.1,0.543,34.1,86.6,113,75.8,5.55,782,4.44,6.08,539.405,2517.64,0.029,0.0486,36.9026,6.53,5.56,37.1,32.8,0.817,260,212,89,0.92,0.587,0.0432,0.0432,0.986,1034,1034,15,1,125,28.8,115.2,112.4,37.5,38.6,115,37.9,112,39.1,88.7,40.4,37.4,44.5,4.36,4.36,3.94,-2.87,0.032705,1.58878753,0.208337,5.50506820
292.00,1,261.980,1,261.980,75.863,94.903,5239.695,12.097,0.9731,76.9,0.007,73.3,0.545,34.1,76.7,112,75.5,5.56,782,4.44,6.08,539.405,2243.28,0.029,0.0486,36.9026,6.53,4.92,37.1,32.8,0.815,257,209,70,0.82,0.218,0.0432,0.0432,0.976,1033,1033,15,1,115,37.0,113.4,110.7,38.8,39.9,113,39.0,110,40.1,88.8,40.3,37.4,44.5,4.36,4.36,3.28,-2.23,0.032708,1.59164386,0.208386,5.51494358
293.00,1,262.980,1,262.980,75.822,94.366,5238.743,12.097,0.9732,77.0,-0.052,73.7,0.547,34.1,111.3,112,74.4,5.59,782,4.52,6.09,539.405,2242.89,0.029,0.0486,36.9026,6.53,4.92,37.1,32.8,0.816,258,211,135,1.22,1.384,0.0432,0.0432,0.965,1033,1033,15,1,115,37.0,112.0,109.3,39.9,40.9,112,40.1,109,41.1,88.8,40.2,37.4,44.5,4.37,4.37,4.77,-3.24,0.032708,1.59449686,0.208424,5.52482205
294.00,1,263.980,1,263.980,75.805,94.252,5237.789,12.146,0.9732,77.0,0.033,73.8,0.548,34.1,100.0,112,74.1,5.59,782,4.57,6.09,539.604,2515.11,0.029,0.0486,36.9069,6.55,6.97,37.1,32.8,0.817,260,213,115,1.07,1.038,0.0432,0.0432,0.963,1033,1033,15,1,159,0.6,114.8,112.1,37.5,38.6,113,39.2,110,40.3,88.8,40.3,37.4,44.5,4.37,4.37,4.89,-4.34,0.032708,1.59734951,0.208454,5.53470336
295.00,1,264.980,1,264.980,75.813,94.328,5236.836,12.146,0.9731,76.9,0.125,73.8,0.548,34.1,85.3,112,74.1,5.60,782,4.44,6.09,539.604,2782.72,0.029,0.0486,36.9069,6.55,7.62,37.1,32.8,0.817,260,212,88,0.90,0.535,0.0432,0.0432,0.963,1033,1033,15,1,160,0.3,118.1,115.4,34.9,36.1,116,36.8,113,38.1,88.8,40.4,37.4,44.5,4.37,4.37,3.92,-3.05,0.032709,1.60020098,0.208496,5.54458239
296.00,1,265.980,1,265.980,75.886,94.640,5235.885,12.146,0.9731,76.9,0.007,73.8,0.547,34.1,76.9,112,74.4,5.60,782,4.43,6.09,539.604,2487.62,0.029,0.0486,36.9069,6.55,5.39,37.1,32.8,0.815,257,209,71,0.82,0.224,0.0433,0.0433,0.966,1034,1034,15,1,123,30.4,115.1,112.4,37.6,38.7,115,37.9,112,39.1,88.7,40.4,37.4,44.5,4.37,4.37,3.30,-2.41,0.032712,1.60305048,0.208548,5.55445775
297.00,1,266.980,1,266.980,75.941,94.789,5234.931,12.146,0.9732,77.0,-0.052,73.8,0.547,34.1,112.0,112,74.6,5.60,782,4.51,6.09,539.604,2243.12,0.029,0.0486,36.9069,6.55,4.92,37.1,32.8,0.816,258,211,137,1.22,1.409,0.0433,0.0433,0.967,1033,1033,15,1,115,36.9,113.4,110.6,38.9,40.0,113,39.0,110,40.1,88.8,40.3,37.4,44.5,4.37,4.37,4.83,-3.45,0.032714,1.60589913,0.208587,5.56433045
298.00,1,267.980,1,267.980,75.999,94.901,5233.976,12.146,0.9732,77.0,0.033,73.7,0.547,34.1,100.3,112,74.7,5.60,781,4.54,6.09,539.604,2242.89,0.029,0.0486,36.9069,6.55,4.92,37.1,32.8,0.817,260,213,116,1.07,1.052,0.0433,0.0433,0.968,1033,1033,15,1,115,36.9,111.9,109.2,40.0,41.0,112,40.2,109,41.2,88.8,40.2,37.4,44.5,4.37,4.37,4.68,-3.00,0.032714,1.60875039,0.208617,5.57420283
299.00,1,268.980,1,268.980,76.059,95.417,5233.022,12.146,0.9732,76.9,0.062,73.4,0.545,34.1,84.5,113,75.0,5.59,781,4.42,6.09,539.828,2542.27,0.029,0.0486,36.8967,6.56,7.09,37.1,32.8,0.817,260,212,86,0.89,0.510,0.0433,0.0433,0.977,1033,1033,15,1,159,0.5,115.2,112.5,37.1,38.3,113,38.9,110,40.1,88.8,40.3,37.4,44.5,4.37,4.37,3.94,-3.73,0.032714,1.61160359,0.208658,5.58407312
300.00,1,269.980,1,269.980,76.128,95.900,5232.070,12.146,0.9731,76.9,-0.073,72.8,0.542,34.1,93.7,113,76.0,5.55,781,4.45,6.07,539.828,2781.46,0.029,0.0486,36.8967,6.56,7.56,37.1,32.8,0.814,255,208,101,1.03,0.751,0.0433,0.0433,0.989,1033,1033,15,1,160,0.4,118.1,115.4,35.0,36.2,116,36.8,113,38.1,88.8,40.4,37.4,44.5,4.37,4.37,3.67,-2.92,0.032717,1.61445732,0.208709,5.59394354
301.00,1,270.980,1,270.980,76.127,95.777,5231.115,12.146,0.9731,77.0,-0.037,72.8,0.542,34.1,110.9,113,75.9,5.54,781,4.54,6.07,539.828,2456.87,0.029,0.0486,36.8967,6.56,5.22,37.1,32.8,0.817,260,212,134,1.20,1.407,0.0433,0.0433,0.989,1034,1034,15,1,121,31.8,115.0,112.2,37.7,38.8,115,38.0,112,39.2,88.7,40.4,37.4,44.5,4.37,4.37,5.18,-3.87,0.032720,1.61731281,0.208736,5.60381864
302.00,1,271.980,1,271.980,76.107,95.593,5230.161,12.146,0.9731,76.9,0.172,72.8,0.542,34.1,92.2,113,75.8,5.54,781,4.47,6.06,539.828,2243.02,0.029,0.0486,36.8967,6.56,4.92,37.1,32.8,0.817,260,213,100,0.99,0.777,0.0433,0.0433,0.987,1033,1033,15,1,115,37.0,113.2,110.5,39.0,40.1,113,39.1,110,40.2,88.8,40.3,37.4,44.5,4.37,4.37,4.22,-2.85,0.032721,1.62017079,0.208769,5.61369943
303.00,1,272.980,1,272.980,76.038,95.233,5229.209,12.146,0.9732,76.9,0.009,72.7,0.542,34.1,77.6,113,75.4,5.53,781,4.40,6.05,539.828,2242.89,0.029,0.0486,36.8967,6.56,4.92,37.1,32.8,0.816,260,212,73,0.82,0.272,0.0433,0.0433,0.985,1033,1033,15,1,115,37.0,111.9,109.2,40.0,41.0,112,40.2,109,41.3,88.8,40.2,37.4,44.5,4.37,4.37,3.45,-2.18,0.032722,1.62302765,0.208815,5.62358324
304.00,1,273.980,1,273.980,76.000,95.110,5228.257,12.146,0.9732,77.0,0.482,72.7,0.542,34.1,110.0,113,75.3,5.53,780,4.49,6.05,540.062,2568.69,0.029,0.0486,36.9113,6.56,7.20,37.1,32.8,0.816,257,210,132,1.21,1.328,0.0433,0.0433,0.984,1033,1033,15,1,159,0.4,115.6,113.0,36.8,37.9,113,38.6,111,39.8,88.8,40.3,37.4,44.5,4.38,4.38,4.72,-4.47,0.032722,1.62588221,0.208857,5.63347076
305.00,1,274.980,1,274.980,75.965,95.027,5227.303,12.146,0.9731,77.0,0.022,72.7,0.542,34.1,101.3,112,75.2,5.52,780,4.55,6.05,540.062,2777.77,0.029,0.0486,36.9113,6.56,7.48,37.1,32.8,0.817,261,213,117,1.09,1.085,0.0433,0.0433,0.984,1033,1033,15,1,159,0.6,117.9,115.2,35.1,36.3,116,37.0,113,38.2,88.7,40.4,37.4,44.5,4.38,4.38,4.85,-3.73,0.032723,1.62873808,0.208883,5.64336405
306.00,1,275.980,1,275.980,75.934,94.972,5226.350,12.146,0.9730,76.9,0.125,72.6,0.542,34.1,85.1,112,75.1,5.51,780,4.43,6.04,540.062,2425.65,0.029,0.0486,36.9113,6.56,5.05,37.1,32.8,0.817,260,212,87,0.90,0.529,0.0433,0.0433,0.985,1034,1034,15,1,120,33.0,114.8,112.1,37.8,39.0,115,38.0,112,39.2,88.7,40.4,37.4,44.5,4.38,4.38,3.89,-2.80,0.032726,1.63159372,0.208922,5.65325890
307.00,1,276.980,1,276.980,75.904,94.121,5225.400,12.146,0.9731,76.9,0.007,73.3,0.547,34.1,76.4,112,74.2,5.56,780,4.42,6.06,540.062,2242.97,0.029,0.0486,36.9113,6.56,4.92,37.1,32.8,0.815,257,210,70,0.81,0.201,0.0433,0.0433,0.967,1033,1033,15,1,115,37.0,113.2,110.5,39.0,40.1,113,39.1,110,40.3,88.7,40.3,37.4,44.6,4.38,4.38,3.28,-2.21,0.032728,1.63444582,0.208975,5.66315279
308.00,1,277.980,1,277.980,75.926,94.125,5224.447,12.146,0.9732,77.0,-0.052,73.4,0.547,34.1,111.2,112,74.1,5.57,780,4.50,6.06,540.062,2242.89,0.029,0.0486,36.9113,6.56,4.92,37.1,32.8,0.816,258,211,135,1.21,1.376,0.0433,0.0433,0.965,1033,1033,15,1,115,37.0,111.8,109.2,40.1,41.1,112,40.3,109,41.3,88.8,40.2,37.4,44.6,4.38,4.38,4.77,-3.22,0.032727,1.63729478,0.209014,5.67304508
309.00,1,278.980,1,278.980,75.973,94.281,5223.493,12.146,0.9732,77.0,0.033,73.4,0.547,34.1,99.8,112,74.2,5.58,780,4.54,6.06,540.248,2594.27,0.029,0.0486,36.9075,6.56,7.30,37.1,32.8,0.817,261,213,115,1.06,1.028,0.0433,0.0433,0.966,1033,1033,15,1,159,0.4,116.0,113.3,36.5,37.7,114,38.4,111,39.6,88.8,40.3,37.4,44.6,4.38,4.38,4.87,-4.48,0.032727,1.64014471,0.209045,5.68293624
310.00,1,279.980,1,279.980,76.038,94.911,5222.540,12.146,0.9731,76.9,0.062,73.1,0.544,34.1,84.2,112,74.5,5.56,780,4.41,6.06,540.248,2771.72,0.029,0.0486,36.9075,6.56,7.39,37.1,32.8,0.817,260,212,86,0.89,0.496,0.0433,0.0433,0.976,1033,1033,15,1,159,1.0,117.8,115.1,35.3,36.4,116,37.0,113,38.3,88.7,40.4,37.4,44.6,4.38,4.38,3.82,-2.92,0.032729,1.64299581,0.209087,5.69282316
311.00,1,280.980,1,280.980,76.155,95.643,5221.588,12.146,0.9730,76.9,-0.073,72.5,0.541,34.1,93.5,113,75.8,5.52,779,4.44,6.05,540.248,2394.08,0.029,0.0486,36.9075,6.56,4.89,37.1,32.8,0.814,255,208,101,1.02,0.741,0.0434,0.0434,0.991,1034,1034,15,1,119,34.0,114.8,112.0,37.9,39.0,115,38.1,112,39.3,88.7,40.4,37.4,44.6,4.38,4.38,3.64,-2.70,0.032732,1.64584733,0.209138,5.70270744
312.00,1,281.980,1,281.980,76.186,95.627,5220.633,12.146,0.9732,77.0,-0.037,72.5,0.541,34.1,110.8,113,75.8,5.52,779,4.53,6.05,540.248,2242.94,0.029,0.0486,36.9075,6.56,4.92,37.1,32.8,0.817,260,213,135,1.20,1.399,0.0434,0.0434,0.991,1033,1033,15,1,115,36.9,113.1,110.4,39.1,40.2,113,39.2,110,40.4,88.8,40.3,37.4,44.6,4.38,4.38,5.13,-3.58,0.032733,1.64870092,0.209166,5.71259366
313.00,1,282.980,1,282.980,76.200,95.521,5219.679,12.146,0.9732,76.9,0.172,72.4,0.541,34.1,92.3,113,75.8,5.52,779,4.46,6.04,540.248,2242.89,0.029,0.0486,36.9075,6.56,4.92,37.1,32.8,0.817,261,213,100,0.98,0.776,0.0434,0.0434,0.990,1033,1033,15,1,115,36.9,111.7,109.0,40.2,41.2,111,40.4,109,41.4,88.8,40.2,37.4,44.6,4.38,4.38,4.21,-2.66,0.032734,1.65155739,0.209199,5.72248324
314.00,1,283.980,1,283.980,76.195,95.272,5218.727,12.146,0.9732,76.9,0.009,72.4,0.541,34.1,77.7,113,75.5,5.52,779,4.39,6.04,540.452,2618.85,0.029,0.0486,36.8975,6.56,7.40,37.1,32.8,0.816,260,212,73,0.82,0.275,0.0434,0.0434,0.987,1033,1033,15,1,159,0.3,116.4,113.7,36.3,37.4,114,38.1,111,39.3,88.8,40.3,37.3,44.6,4.39,4.39,3.61,-3.55,0.032734,1.65441313,0.209247,5.73237417
